5.065916e+001,6.760038e+002
5.258762e+001,6.658720e+002
5.451609e+001,6.596255e+002
5.644456e+001,6.585557e+002
5.837302e+001,6.619687e+002
6.030149e+001,6.628157e+002
6.222996e+001,6.201954e+002
6.415842e+001,6.024627e+002
6.608689e+001,5.939802e+002
6.801536e+001,5.821753e+002
6.994382e+001,5.690539e+002
7.187229e+001,5.625004e+002
7.380076e+001,5.557376e+002
7.572923e+001,5.423589e+002
7.765769e+001,5.228867e+002
7.958616e+001,5.142891e+002
8.151463e+001,5.151138e+002
8.344309e+001,5.130491e+002
8.537156e+001,5.042257e+002
8.730003e+001,4.925810e+002
8.922849e+001,4.959853e+002
9.115696e+001,5.020774e+002
9.308543e+001,5.001355e+002
9.501389e+001,4.946322e+002
9.694236e+001,5.029048e+002
9.887083e+001,4.922705e+002
1.007993e+002,4.779021e+002
1.027278e+002,4.739982e+002
1.046562e+002,4.809969e+002
1.065847e+002,4.734963e+002
1.085132e+002,4.503051e+002
1.104416e+002,4.280296e+002
1.123701e+002,4.102669e+002
1.142986e+002,3.927295e+002
1.162270e+002,3.630230e+002
1.181555e+002,3.470359e+002
1.200840e+002,3.392575e+002
1.220124e+002,3.318725e+002
1.239409e+002,3.189302e+002
1.258694e+002,3.104577e+002
1.277978e+002,3.027941e+002
1.297263e+002,2.939818e+002
1.316548e+002,2.852429e+002
1.335832e+002,2.805063e+002
1.355117e+002,2.721584e+002
1.374402e+002,2.759637e+002
1.393686e+002,2.733422e+002
1.412971e+002,2.589783e+002
1.432256e+002,2.615899e+002
1.451540e+002,2.464113e+002
1.470825e+002,2.391363e+002
1.490110e+002,2.412650e+002
1.509394e+002,2.466395e+002
1.528679e+002,2.512223e+002
1.547964e+002,2.472774e+002
1.567248e+002,2.441182e+002
1.586533e+002,2.393193e+002
1.605818e+002,2.303819e+002
1.625102e+002,2.383157e+002
1.644387e+002,2.390211e+002
1.663672e+002,2.304371e+002
1.682956e+002,2.217068e+002
1.702241e+002,2.245810e+002
1.721526e+002,2.265725e+002
1.740810e+002,2.348203e+002
1.760095e+002,2.376097e+002
1.779380e+002,2.334246e+002
1.798664e+002,2.310488e+002
1.817949e+002,2.371136e+002
1.837234e+002,2.319647e+002
1.856518e+002,2.256581e+002
1.875803e+002,2.247749e+002
1.895088e+002,2.272204e+002
1.914372e+002,2.314972e+002
1.933657e+002,2.320278e+002
1.952942e+002,2.268475e+002
1.972226e+002,2.186974e+002
1.991511e+002,2.151787e+002
2.010796e+002,2.198943e+002
2.030080e+002,2.235483e+002
2.049365e+002,2.254033e+002
2.068650e+002,2.259878e+002
2.087934e+002,2.246327e+002
2.107219e+002,2.146416e+002
2.126504e+002,2.135997e+002
2.145788e+002,2.183048e+002
2.165073e+002,2.189717e+002
2.184358e+002,2.057133e+002
2.203642e+002,2.164447e+002
2.222927e+002,2.125347e+002
2.242212e+002,2.058403e+002
2.261496e+002,2.068488e+002
2.280781e+002,1.968205e+002
2.300066e+002,1.929488e+002
2.319350e+002,1.896799e+002
2.338635e+002,1.864322e+002
2.357920e+002,1.841773e+002
2.377204e+002,1.840235e+002
2.396489e+002,1.805411e+002
2.415774e+002,1.759830e+002
2.435058e+002,1.711990e+002
2.454343e+002,1.679929e+002
2.473628e+002,1.704951e+002
2.492912e+002,1.822194e+002
2.512197e+002,1.809769e+002
2.531482e+002,1.728475e+002
2.550766e+002,1.698237e+002
2.570051e+002,1.772078e+002
2.589336e+002,1.698263e+002
2.608620e+002,1.680918e+002
2.627905e+002,1.666007e+002
2.647190e+002,1.614359e+002
2.666474e+002,1.629226e+002
2.685759e+002,1.741205e+002
2.705044e+002,1.705947e+002
2.724328e+002,1.613877e+002
2.743613e+002,1.583223e+002
2.762898e+002,1.629181e+002
2.782182e+002,1.586468e+002
2.801467e+002,1.541970e+002
2.820752e+002,1.574418e+002
2.840036e+002,1.656773e+002
2.859321e+002,1.641991e+002
2.878606e+002,1.537034e+002
2.897890e+002,1.576874e+002
2.917175e+002,1.630742e+002
2.936460e+002,1.579066e+002
2.955744e+002,1.424317e+002
2.975029e+002,1.469360e+002
2.994314e+002,1.548214e+002
3.013598e+002,1.621688e+002
3.032883e+002,1.575333e+002
3.052168e+002,1.323390e+002
3.071452e+002,1.349476e+002
3.090737e+002,1.387425e+002
3.110022e+002,1.428587e+002
3.129306e+002,1.476940e+002
3.148591e+002,1.521832e+002
3.167876e+002,1.502364e+002
3.187160e+002,1.460201e+002
3.206445e+002,1.475707e+002
3.225730e+002,1.530037e+002
3.245014e+002,1.541959e+002
3.264299e+002,1.409495e+002
3.283584e+002,1.378440e+002
3.302868e+002,1.454093e+002
3.322153e+002,1.516008e+002
3.341438e+002,1.482193e+002
3.360722e+002,1.431731e+002
3.380007e+002,1.430764e+002
3.399292e+002,1.437504e+002
3.418576e+002,1.432964e+002
3.437861e+002,1.431085e+002
3.457146e+002,1.470276e+002
3.476430e+002,1.475351e+002
3.495715e+002,1.486769e+002
3.515000e+002,1.482942e+002
3.534284e+002,1.460190e+002
3.553569e+002,1.438237e+002
3.572854e+002,1.437048e+002
3.592138e+002,1.448976e+002
3.611423e+002,1.469499e+002
3.630708e+002,1.448360e+002
3.649992e+002,1.361755e+002
3.669277e+002,1.330087e+002
3.688562e+002,1.396044e+002
3.707846e+002,1.360522e+002
3.727131e+002,1.320025e+002
3.746416e+002,1.362557e+002
3.765700e+002,1.382056e+002
3.784985e+002,1.453313e+002
3.804270e+002,1.418282e+002
3.823554e+002,1.365529e+002
3.842839e+002,1.348034e+002
3.862124e+002,1.332756e+002
3.881408e+002,1.313287e+002
3.900693e+002,1.292085e+002
3.919978e+002,1.288919e+002
3.939262e+002,1.320208e+002
3.958547e+002,1.379621e+002
3.977832e+002,1.408566e+002
3.997116e+002,1.371481e+002
4.016401e+002,1.336124e+002
4.035686e+002,1.321601e+002
4.054970e+002,1.332593e+002
4.074255e+002,1.370727e+002
4.093540e+002,1.317679e+002
4.112824e+002,1.336359e+002
4.132109e+002,1.307923e+002
4.151394e+002,1.261256e+002
4.170678e+002,1.324818e+002
4.189963e+002,1.331781e+002
4.209248e+002,1.382713e+002
4.228532e+002,1.343394e+002
4.247817e+002,1.270956e+002
4.267102e+002,1.266174e+002
4.286386e+002,1.319799e+002
4.305671e+002,1.309071e+002
4.324956e+002,1.304910e+002
4.344240e+002,1.328877e+002
4.363525e+002,1.341381e+002
4.382810e+002,1.280912e+002
4.402094e+002,1.244007e+002
4.421379e+002,1.191848e+002
4.440664e+002,1.194032e+002
4.459948e+002,1.181371e+002
4.479233e+002,1.131521e+002
4.498518e+002,1.263093e+002
4.517802e+002,1.217412e+002
4.537087e+002,1.250978e+002
4.556372e+002,1.319952e+002
4.575656e+002,1.336463e+002
4.594941e+002,1.267690e+002
4.614226e+002,1.228415e+002
4.633510e+002,1.268447e+002
4.652795e+002,1.301614e+002
4.672080e+002,1.290834e+002
4.691364e+002,1.261944e+002
4.710649e+002,1.295018e+002
4.729934e+002,1.317867e+002
4.749218e+002,1.223257e+002
4.768503e+002,1.183464e+002
4.787788e+002,1.230921e+002
4.807072e+002,1.254167e+002
4.826357e+002,1.262172e+002
4.845642e+002,1.226957e+002
4.864926e+002,1.251493e+002
4.884211e+002,1.271868e+002
4.903496e+002,1.258564e+002
4.922780e+002,1.308139e+002
4.942065e+002,1.267823e+002
4.961350e+002,1.280432e+002
4.980634e+002,1.291491e+002
4.999919e+002,1.252136e+002
5.019204e+002,1.183227e+002
5.038488e+002,1.224387e+002
5.057773e+002,1.269168e+002
5.077058e+002,1.173890e+002
5.096342e+002,1.142584e+002
5.115627e+002,1.230298e+002
5.134912e+002,1.275589e+002
5.154197e+002,1.228993e+002
5.173481e+002,1.173627e+002
5.192766e+002,1.219890e+002
5.212051e+002,1.288421e+002
5.231335e+002,1.289855e+002
5.250620e+002,1.247133e+002
5.269905e+002,1.235898e+002
5.289189e+002,1.242928e+002
5.308474e+002,1.253863e+002
5.327759e+002,1.253630e+002
5.347043e+002,1.240404e+002
5.366328e+002,1.239048e+002
5.385613e+002,1.282795e+002
5.404897e+002,1.285389e+002
5.424182e+002,1.236880e+002
5.443467e+002,1.201576e+002
5.462751e+002,1.222809e+002
5.482036e+002,1.139284e+002
5.501321e+002,1.297667e+002
5.520605e+002,1.236970e+002
5.539890e+002,1.139989e+002
5.559175e+002,1.161645e+002
5.578459e+002,1.223526e+002
5.597744e+002,1.184043e+002
5.617029e+002,1.222034e+002
5.636313e+002,1.213092e+002
5.655598e+002,1.209918e+002
5.674883e+002,1.238103e+002
5.694167e+002,1.223142e+002
5.713452e+002,1.208572e+002
5.732737e+002,1.214108e+002
5.752021e+002,1.199638e+002
5.771306e+002,1.196223e+002
5.790591e+002,1.239473e+002
5.809875e+002,1.302309e+002
5.829160e+002,1.198090e+002
5.848445e+002,1.179859e+002
5.867729e+002,1.196665e+002
5.887014e+002,1.210467e+002
5.906299e+002,1.229141e+002
5.925583e+002,1.286173e+002
5.944868e+002,1.209155e+002
5.964153e+002,1.202670e+002
5.983438e+002,1.201267e+002
6.002722e+002,1.176448e+002
6.022007e+002,1.146928e+002
6.041292e+002,1.151209e+002
6.060576e+002,1.242814e+002
6.079861e+002,1.276290e+002
6.099146e+002,1.257764e+002
6.118430e+002,1.223664e+002
6.137715e+002,1.188451e+002
6.157000e+002,1.124648e+002
6.176284e+002,1.173533e+002
6.195569e+002,1.168834e+002
6.214854e+002,1.161196e+002
6.234138e+002,1.154562e+002
6.253423e+002,1.134840e+002
6.272708e+002,1.131036e+002
6.291992e+002,1.200709e+002
6.311277e+002,1.186571e+002
6.330562e+002,1.220510e+002
6.349846e+002,1.241394e+002
6.369131e+002,1.174393e+002
6.388416e+002,1.128065e+002
6.407700e+002,1.196698e+002
6.426985e+002,1.262665e+002
6.446270e+002,1.251113e+002
6.465554e+002,1.189548e+002
6.484839e+002,1.162069e+002
6.504124e+002,1.231661e+002
6.523408e+002,1.287555e+002
6.542693e+002,1.119733e+002
6.561978e+002,1.121464e+002
6.581262e+002,1.221517e+002
6.600547e+002,1.259373e+002
6.619832e+002,1.256768e+002
6.639116e+002,1.296746e+002
6.658401e+002,1.187222e+002
6.677686e+002,1.180529e+002
6.696970e+002,1.228714e+002
6.716255e+002,1.239775e+002
6.735540e+002,1.211945e+002
6.754824e+002,1.203426e+002
6.774109e+002,1.262462e+002
6.793394e+002,1.307274e+002
6.812678e+002,1.294434e+002
6.831963e+002,1.237460e+002
6.851248e+002,1.184266e+002
6.870532e+002,1.164821e+002
6.889817e+002,1.231520e+002
6.909102e+002,1.260332e+002
6.928386e+002,1.280011e+002
6.947671e+002,1.318338e+002
6.966956e+002,1.328467e+002
6.986240e+002,1.201382e+002
7.005525e+002,1.276855e+002
7.024810e+002,1.322667e+002
7.044094e+002,1.338880e+002
7.063379e+002,1.312145e+002
7.082664e+002,1.271512e+002
7.101948e+002,1.293741e+002
7.121233e+002,1.313046e+002
7.140518e+002,1.354064e+002
7.159802e+002,1.437116e+002
7.179087e+002,1.460506e+002
7.198372e+002,1.389313e+002
7.217656e+002,1.328911e+002
7.236941e+002,1.475119e+002
7.256226e+002,1.511885e+002
7.275510e+002,1.497312e+002
7.294795e+002,1.425010e+002
7.314080e+002,1.389634e+002
7.333364e+002,1.442083e+002
7.352649e+002,1.445681e+002
7.371934e+002,1.350006e+002
7.391218e+002,1.417239e+002
7.410503e+002,1.426082e+002
7.429788e+002,1.420686e+002
7.449072e+002,1.434760e+002
7.468357e+002,1.400612e+002
7.487642e+002,1.399778e+002
7.506926e+002,1.434646e+002
7.526211e+002,1.417959e+002
7.545496e+002,1.394925e+002
7.564780e+002,1.414999e+002
7.584065e+002,1.471520e+002
7.603350e+002,1.493451e+002
7.622634e+002,1.470455e+002
7.641919e+002,1.508681e+002
7.661204e+002,1.502603e+002
7.680488e+002,1.488809e+002
7.699773e+002,1.512705e+002
7.719058e+002,1.548744e+002
7.738342e+002,1.535759e+002
7.757627e+002,1.526596e+002
7.776912e+002,1.507761e+002
7.796196e+002,1.495388e+002
7.815481e+002,1.484715e+002
7.834766e+002,1.472501e+002
7.854050e+002,1.485118e+002
7.873335e+002,1.560209e+002
7.892620e+002,1.648940e+002
7.911904e+002,1.654059e+002
7.931189e+002,1.592598e+002
7.950474e+002,1.582931e+002
7.969758e+002,1.654823e+002
7.989043e+002,1.551945e+002
8.008328e+002,1.572894e+002
8.027612e+002,1.596748e+002
8.046897e+002,1.604289e+002
8.066182e+002,1.545204e+002
8.085466e+002,1.517565e+002
8.104751e+002,1.665218e+002
8.124036e+002,1.682459e+002
8.143320e+002,1.671265e+002
8.162605e+002,1.688283e+002
8.181890e+002,1.657924e+002
8.201174e+002,1.589604e+002
8.220459e+002,1.565792e+002
8.239744e+002,1.649550e+002
8.259028e+002,1.755323e+002
8.278313e+002,1.810731e+002
8.297598e+002,1.719244e+002
8.316882e+002,1.707883e+002
8.336167e+002,1.756092e+002
8.355452e+002,1.749800e+002
8.374736e+002,1.776680e+002
8.394021e+002,1.792168e+002
8.413306e+002,1.848453e+002
8.432590e+002,1.875198e+002
8.451875e+002,1.877949e+002
8.471160e+002,1.869046e+002
8.490444e+002,1.860932e+002
8.509729e+002,1.879736e+002
8.529014e+002,1.882656e+002
8.548298e+002,1.903342e+002
8.567583e+002,1.921401e+002
8.586868e+002,1.901436e+002
8.606152e+002,1.932716e+002
8.625437e+002,2.050989e+002
8.644722e+002,2.017658e+002
8.664006e+002,1.980878e+002
8.683291e+002,2.030477e+002
8.702576e+002,2.070019e+002
8.721860e+002,2.060031e+002
8.741145e+002,2.080991e+002
8.760430e+002,2.160160e+002
8.779714e+002,2.097323e+002
8.798999e+002,2.037418e+002
8.818284e+002,2.081364e+002
8.837568e+002,2.126797e+002
8.856853e+002,2.106504e+002
8.876138e+002,2.070377e+002
8.895422e+002,2.090499e+002
8.914707e+002,2.116709e+002
8.933992e+002,2.052230e+002
8.953276e+002,2.099338e+002
8.972561e+002,2.137449e+002
8.991846e+002,2.044634e+002
9.011130e+002,1.944170e+002
9.030415e+002,1.944798e+002
9.049700e+002,1.893757e+002
9.068984e+002,1.954089e+002
9.088269e+002,1.962254e+002
9.107554e+002,1.954436e+002
9.126838e+002,1.999865e+002
9.146123e+002,1.979953e+002
9.165408e+002,1.878368e+002
9.184692e+002,1.908577e+002
9.203977e+002,1.953629e+002
9.223262e+002,1.949420e+002
9.242546e+002,2.000603e+002
9.261831e+002,2.013582e+002
9.281116e+002,1.988492e+002
9.300400e+002,1.986679e+002
9.319685e+002,2.022189e+002
9.338970e+002,1.994006e+002
9.358254e+002,1.964591e+002
9.377539e+002,1.909223e+002
9.396824e+002,1.901941e+002
9.416108e+002,1.924402e+002
9.435393e+002,1.930083e+002
9.454678e+002,1.906880e+002
9.473962e+002,1.898036e+002
9.493247e+002,1.973959e+002
9.512532e+002,1.930210e+002
9.531816e+002,1.888312e+002
9.551101e+002,1.914011e+002
9.570386e+002,1.946754e+002
9.589670e+002,1.927130e+002
9.608955e+002,1.898660e+002
9.628240e+002,1.909669e+002
9.647524e+002,2.045083e+002
9.666809e+002,1.929400e+002
9.686094e+002,1.913431e+002
9.705378e+002,1.948860e+002
9.724663e+002,1.945911e+002
9.743948e+002,1.943049e+002
9.763232e+002,1.931616e+002
9.782517e+002,2.010757e+002
9.801802e+002,1.932220e+002
9.821086e+002,1.971720e+002
9.840371e+002,2.074368e+002
9.859656e+002,2.111240e+002
9.878940e+002,2.051431e+002
9.898225e+002,1.990760e+002
9.917510e+002,2.025204e+002
9.936794e+002,2.133656e+002
9.956079e+002,2.163249e+002
9.975364e+002,2.101354e+002
9.994648e+002,2.092462e+002
1.001393e+003,2.176851e+002
1.003322e+003,2.271350e+002
1.005250e+003,2.304511e+002
1.007179e+003,2.219122e+002
1.009107e+003,2.150563e+002
1.011036e+003,2.232944e+002
1.012964e+003,2.238463e+002
1.014893e+003,2.225487e+002
1.016821e+003,2.275571e+002
1.018750e+003,2.344396e+002
1.020678e+003,2.407849e+002
1.022606e+003,2.432718e+002
1.024535e+003,2.391274e+002
1.026463e+003,2.360341e+002
1.028392e+003,2.369141e+002
1.030320e+003,2.394633e+002
1.032249e+003,2.408475e+002
1.034177e+003,2.450603e+002
1.036106e+003,2.628198e+002
1.038034e+003,2.626100e+002
1.039963e+003,2.681346e+002
1.041891e+003,2.599899e+002
1.043820e+003,2.705967e+002
1.045748e+003,2.841846e+002
1.047677e+003,2.898302e+002
1.049605e+003,3.124881e+002
1.051533e+003,3.465179e+002
1.053462e+003,4.075997e+002
1.055390e+003,5.517491e+002
1.057319e+003,7.886202e+002
1.059247e+003,1.042729e+003
1.061176e+003,1.182687e+003
1.063104e+003,1.096289e+003
1.065033e+003,8.021013e+002
1.066961e+003,5.200162e+002
1.068890e+003,4.153329e+002
1.070818e+003,3.799248e+002
1.072747e+003,3.774373e+002
1.074675e+003,3.722066e+002
1.076604e+003,3.735483e+002
1.078532e+003,3.785326e+002
1.080460e+003,3.679488e+002
1.082389e+003,3.693397e+002
1.084317e+003,3.585149e+002
1.086246e+003,3.480345e+002
1.088174e+003,3.476567e+002
1.090103e+003,3.456843e+002
1.092031e+003,3.410773e+002
1.093960e+003,3.291685e+002
1.095888e+003,3.089747e+002
1.097817e+003,3.010985e+002
1.099745e+003,3.063891e+002
1.101674e+003,3.053454e+002
1.103602e+003,3.152827e+002
1.105531e+003,3.013257e+002
1.107459e+003,3.004290e+002
1.109387e+003,3.165097e+002
1.111316e+003,3.260663e+002
1.113244e+003,3.352366e+002
1.115173e+003,3.490294e+002
1.117101e+003,3.805415e+002
1.119030e+003,4.256993e+002
1.120958e+003,4.974531e+002
1.122887e+003,6.484927e+002
1.124815e+003,9.148215e+002
1.126744e+003,1.218866e+003
1.128672e+003,1.345768e+003
1.130601e+003,1.099128e+003
1.132529e+003,7.263878e+002
1.134458e+003,5.108949e+002
1.136386e+003,4.047615e+002
1.138314e+003,3.526648e+002
1.140243e+003,3.198470e+002
1.142171e+003,3.007851e+002
1.144100e+003,2.950971e+002
1.146028e+003,2.905987e+002
1.147957e+003,2.878214e+002
1.149885e+003,2.851040e+002
1.151814e+003,2.880396e+002
1.153742e+003,2.932710e+002
1.155671e+003,2.943646e+002
1.157599e+003,2.955749e+002
1.159528e+003,3.009008e+002
1.161456e+003,3.136525e+002
1.163385e+003,3.469102e+002
1.165313e+003,4.138071e+002
1.167241e+003,4.831684e+002
1.169170e+003,4.794028e+002
1.171098e+003,4.141643e+002
1.173027e+003,3.483595e+002
1.174955e+003,3.085945e+002
1.176884e+003,2.905790e+002
1.178812e+003,2.832918e+002
1.180741e+003,2.739078e+002
1.182669e+003,2.644578e+002
1.184598e+003,2.648426e+002
1.186526e+003,2.687608e+002
1.188455e+003,2.677069e+002
1.190383e+003,2.656851e+002
1.192312e+003,2.658250e+002
1.194240e+003,2.644232e+002
1.196168e+003,2.619280e+002
1.198097e+003,2.701414e+002
1.200025e+003,2.707013e+002
1.201954e+003,2.674422e+002
1.203882e+003,2.606049e+002
1.205811e+003,2.568930e+002
1.207739e+003,2.550171e+002
1.209668e+003,2.580447e+002
1.211596e+003,2.647240e+002
1.213525e+003,2.676933e+002
1.215453e+003,2.664233e+002
1.217382e+003,2.664732e+002
1.219310e+003,2.694445e+002
1.221239e+003,2.696637e+002
1.223167e+003,2.654189e+002
1.225095e+003,2.637437e+002
1.227024e+003,2.692868e+002
1.228952e+003,2.762610e+002
1.230881e+003,2.740723e+002
1.232809e+003,2.637093e+002
1.234738e+003,2.662077e+002
1.236666e+003,2.761842e+002
1.238595e+003,2.686920e+002
1.240523e+003,2.654644e+002
1.242452e+003,2.760171e+002
1.244380e+003,2.802036e+002
1.246309e+003,2.753703e+002
1.248237e+003,2.742052e+002
1.250166e+003,2.766577e+002
1.252094e+003,2.746992e+002
1.254022e+003,2.806519e+002
1.255951e+003,2.893733e+002
1.257879e+003,2.989588e+002
1.259808e+003,2.965608e+002
1.261736e+003,2.957544e+002
1.263665e+003,3.066666e+002
1.265593e+003,3.237988e+002
1.267522e+003,3.304900e+002
1.269450e+003,3.206255e+002
1.271379e+003,3.264055e+002
1.273307e+003,3.365880e+002
1.275236e+003,3.320526e+002
1.277164e+003,3.382936e+002
1.279093e+003,3.509039e+002
1.281021e+003,3.634788e+002
1.282949e+003,3.871939e+002
1.284878e+003,4.334962e+002
1.286806e+003,5.230916e+002
1.288735e+003,7.353181e+002
1.290663e+003,1.204262e+003
1.292592e+003,1.917503e+003
1.294520e+003,1.974299e+003
1.296449e+003,1.314839e+003
1.298377e+003,8.035303e+002
1.300306e+003,5.992712e+002
1.302234e+003,5.312456e+002
1.304163e+003,4.895588e+002
1.306091e+003,4.530187e+002
1.308020e+003,4.270767e+002
1.309948e+003,4.118383e+002
1.311876e+003,3.961025e+002
1.313805e+003,3.763745e+002
1.315733e+003,3.615699e+002
1.317662e+003,3.491967e+002
1.319590e+003,3.313094e+002
1.321519e+003,3.262440e+002
1.323447e+003,3.255561e+002
1.325376e+003,3.110161e+002
1.327304e+003,3.097663e+002
1.329233e+003,2.856964e+002
1.331161e+003,2.754660e+002
1.333090e+003,2.822359e+002
1.335018e+003,2.876612e+002
1.336947e+003,2.817866e+002
1.338875e+003,2.748738e+002
1.340803e+003,2.773618e+002
1.342732e+003,2.832734e+002
1.344660e+003,2.815824e+002
1.346589e+003,2.752245e+002
1.348517e+003,2.728542e+002
1.350446e+003,2.672519e+002
1.352374e+003,2.876863e+002
1.354303e+003,2.786080e+002
1.356231e+003,2.827475e+002
1.358160e+003,2.846839e+002
1.360088e+003,2.894919e+002
1.362017e+003,3.034587e+002
1.363945e+003,3.214530e+002
1.365874e+003,3.427889e+002
1.367802e+003,3.668192e+002
1.369730e+003,3.558667e+002
1.371659e+003,3.377371e+002
1.373587e+003,3.127366e+002
1.375516e+003,2.915226e+002
1.377444e+003,2.891791e+002
1.379373e+003,2.784231e+002
1.381301e+003,2.714907e+002
1.383230e+003,2.685530e+002
1.385158e+003,2.648780e+002
1.387087e+003,2.675926e+002
1.389015e+003,2.652229e+002
1.390944e+003,2.758748e+002
1.392872e+003,2.757715e+002
1.394801e+003,2.730655e+002
1.396729e+003,2.678772e+002
1.398657e+003,2.749764e+002
1.400586e+003,2.729579e+002
1.402514e+003,2.751515e+002
1.404443e+003,2.910174e+002
1.406371e+003,3.095029e+002
1.408300e+003,3.381605e+002
1.410228e+003,4.160293e+002
1.412157e+003,5.480311e+002
1.414085e+003,6.984378e+002
1.416014e+003,7.096317e+002
1.417942e+003,5.899758e+002
1.419871e+003,4.862650e+002
1.421799e+003,4.686550e+002
1.423728e+003,4.903323e+002
1.425656e+003,5.297198e+002
1.427584e+003,5.966924e+002
1.429513e+003,6.993389e+002
1.431441e+003,8.515688e+002
1.433370e+003,1.057330e+003
1.435298e+003,1.327021e+003
1.437227e+003,1.597129e+003
1.439155e+003,1.671435e+003
1.441084e+003,1.467466e+003
1.443012e+003,1.202536e+003
1.444941e+003,1.011468e+003
1.446869e+003,9.078381e+002
1.448798e+003,8.531917e+002
1.450726e+003,8.364208e+002
1.452655e+003,8.631896e+002
1.454583e+003,8.990303e+002
1.456511e+003,9.190319e+002
1.458440e+003,9.485085e+002
1.460368e+003,9.638071e+002
1.462297e+003,9.581981e+002
1.464225e+003,9.102661e+002
1.466154e+003,8.229875e+002
1.468082e+003,7.301735e+002
1.470011e+003,6.456675e+002
1.471939e+003,5.625355e+002
1.473868e+003,4.834956e+002
1.475796e+003,4.314716e+002
1.477725e+003,4.119992e+002
1.479653e+003,3.822062e+002
1.481582e+003,3.651654e+002
1.483510e+003,3.600496e+002
1.485438e+003,3.451165e+002
1.487367e+003,3.113048e+002
1.489295e+003,3.036524e+002
1.491224e+003,3.087046e+002
1.493152e+003,3.037359e+002
1.495081e+003,2.900730e+002
1.497009e+003,2.834120e+002
1.498938e+003,2.872625e+002
1.500866e+003,2.875799e+002
1.502795e+003,2.798698e+002
1.504723e+003,2.833581e+002
1.506652e+003,2.799914e+002
1.508580e+003,2.810369e+002
1.510509e+003,2.820815e+002
1.512437e+003,2.788773e+002
1.514365e+003,2.660292e+002
1.516294e+003,2.591261e+002
1.518222e+003,2.617322e+002
1.520151e+003,2.698714e+002
1.522079e+003,2.765076e+002
1.524008e+003,2.769425e+002
1.525936e+003,2.764395e+002
1.527865e+003,2.781306e+002
1.529793e+003,2.774253e+002
1.531722e+003,2.706176e+002
1.533650e+003,2.625006e+002
1.535579e+003,2.668987e+002
1.537507e+003,2.607344e+002
1.539436e+003,2.696401e+002
1.541364e+003,2.749231e+002
1.543292e+003,2.707177e+002
1.545221e+003,2.640468e+002
1.547149e+003,2.695504e+002
1.549078e+003,2.762697e+002
1.551006e+003,2.634367e+002
1.552935e+003,2.653299e+002
1.554863e+003,2.691483e+002
1.556792e+003,2.673021e+002
1.558720e+003,2.694098e+002
1.560649e+003,2.674005e+002
1.562577e+003,2.582029e+002
1.564506e+003,2.550065e+002
1.566434e+003,2.591696e+002
1.568363e+003,2.671250e+002
1.570291e+003,2.665208e+002
1.572219e+003,2.656637e+002
1.574148e+003,2.646568e+002
1.576076e+003,2.602739e+002
1.578005e+003,2.637664e+002
1.579933e+003,2.545829e+002
1.581862e+003,2.551354e+002
1.583790e+003,2.553294e+002
1.585719e+003,2.568577e+002
1.587647e+003,2.566870e+002
1.589576e+003,2.542411e+002
1.591504e+003,2.576968e+002
1.593433e+003,2.531515e+002
1.595361e+003,2.586696e+002
1.597290e+003,2.613604e+002
1.599218e+003,2.581360e+002
1.601146e+003,2.576426e+002
1.603075e+003,2.595395e+002
1.605003e+003,2.592323e+002
1.606932e+003,2.554391e+002
1.608860e+003,2.619296e+002
1.610789e+003,2.616626e+002
1.612717e+003,2.570781e+002
1.614646e+003,2.566398e+002
1.616574e+003,2.581473e+002
1.618503e+003,2.588145e+002
1.620431e+003,2.618860e+002
1.622360e+003,2.659206e+002
1.624288e+003,2.640035e+002
1.626217e+003,2.596441e+002
1.628145e+003,2.496596e+002
1.630073e+003,2.431990e+002
1.632002e+003,2.518581e+002
1.633930e+003,2.602494e+002
1.635859e+003,2.554238e+002
1.637787e+003,2.509142e+002
1.639716e+003,2.588472e+002
1.641644e+003,2.571869e+002
1.643573e+003,2.582346e+002
1.645501e+003,2.594956e+002
1.647430e+003,2.542529e+002
1.649358e+003,2.524462e+002
1.651287e+003,2.546234e+002
1.653215e+003,2.510482e+002
1.655144e+003,2.480499e+002
1.657072e+003,2.519445e+002
1.659000e+003,2.559632e+002
1.660929e+003,2.505691e+002
1.662857e+003,2.470314e+002
1.664786e+003,2.538677e+002
1.666714e+003,2.504129e+002
1.668643e+003,2.541630e+002
1.670571e+003,2.509831e+002
1.672500e+003,2.453918e+002
1.674428e+003,2.422307e+002
1.676357e+003,2.485558e+002
1.678285e+003,2.606473e+002
1.680214e+003,2.599062e+002
1.682142e+003,2.486325e+002
1.684071e+003,2.507210e+002
1.685999e+003,2.536857e+002
1.687927e+003,2.535184e+002
1.689856e+003,2.527636e+002
1.691784e+003,2.577932e+002
1.693713e+003,2.634610e+002
1.695641e+003,2.588758e+002
1.697570e+003,2.555104e+002
1.699498e+003,2.582527e+002
1.701427e+003,2.517877e+002
1.703355e+003,2.509335e+002
1.705284e+003,2.586964e+002
1.707212e+003,2.647958e+002
1.709141e+003,2.665182e+002
1.711069e+003,2.576689e+002
1.712998e+003,2.533432e+002
1.714926e+003,2.543919e+002
1.716854e+003,2.565013e+002
1.718783e+003,2.634386e+002
1.720711e+003,2.596145e+002
1.722640e+003,2.526817e+002
1.724568e+003,2.524530e+002
1.726497e+003,2.570458e+002
1.728425e+003,2.624104e+002
1.730354e+003,2.622821e+002
1.732282e+003,2.576368e+002
1.734211e+003,2.594126e+002
1.736139e+003,2.646972e+002
1.738068e+003,2.635473e+002
1.739996e+003,2.634589e+002
1.741925e+003,2.690617e+002
1.743853e+003,2.696139e+002
1.745781e+003,2.606594e+002
1.747710e+003,2.604541e+002
1.749638e+003,2.701043e+002
1.751567e+003,2.734259e+002
1.753495e+003,2.632055e+002
1.755424e+003,2.663532e+002
1.757352e+003,2.722484e+002
1.759281e+003,2.713331e+002
1.761209e+003,2.668196e+002
1.763138e+003,2.611620e+002
1.765066e+003,2.577179e+002
1.766995e+003,2.581475e+002
1.768923e+003,2.621230e+002
1.770852e+003,2.665905e+002
1.772780e+003,2.620309e+002
1.774708e+003,2.702399e+002
1.776637e+003,2.636814e+002
1.778565e+003,2.667647e+002
1.780494e+003,2.625680e+002
1.782422e+003,2.617926e+002
1.784351e+003,2.691819e+002
1.786279e+003,2.648230e+002
1.788208e+003,2.677696e+002
1.790136e+003,2.714233e+002
1.792065e+003,2.671175e+002
1.793993e+003,2.636356e+002
1.795922e+003,2.644074e+002
1.797850e+003,2.706435e+002
1.799779e+003,2.782793e+002
1.801707e+003,2.718423e+002
1.803635e+003,2.672944e+002
1.805564e+003,2.757859e+002
1.807492e+003,2.784690e+002
1.809421e+003,2.772920e+002
1.811349e+003,2.698868e+002
1.813278e+003,2.744235e+002
1.815206e+003,2.699646e+002
1.817135e+003,2.753100e+002
1.819063e+003,2.738642e+002
1.820992e+003,2.672699e+002
1.822920e+003,2.728841e+002
1.824849e+003,2.791940e+002
1.826777e+003,2.751159e+002
1.828706e+003,2.657069e+002
1.830634e+003,2.741777e+002
1.832563e+003,2.715764e+002
1.834491e+003,2.714394e+002
1.836419e+003,2.729344e+002
1.838348e+003,2.712827e+002
1.840276e+003,2.802672e+002
1.842205e+003,2.851598e+002
1.844133e+003,2.810004e+002
1.846062e+003,2.824521e+002
1.847990e+003,2.843429e+002
1.849919e+003,2.786213e+002
1.851847e+003,2.797249e+002
1.853776e+003,2.896607e+002
1.855704e+003,2.912022e+002
1.857633e+003,2.881543e+002
1.859561e+003,2.816343e+002
1.861490e+003,2.850611e+002
1.863418e+003,2.911804e+002
1.865346e+003,2.898017e+002
1.867275e+003,2.842046e+002
1.869203e+003,2.917243e+002
1.871132e+003,2.917596e+002
1.873060e+003,2.948090e+002
1.874989e+003,2.944707e+002
1.876917e+003,2.846449e+002
1.878846e+003,2.820905e+002
1.880774e+003,2.900691e+002
1.882703e+003,2.876149e+002
1.884631e+003,2.919023e+002
1.886560e+003,2.993947e+002
1.888488e+003,2.965091e+002
1.890417e+003,2.965065e+002
1.892345e+003,2.982056e+002
1.894273e+003,2.904207e+002
1.896202e+003,2.928221e+002
1.898130e+003,3.048585e+002
1.900059e+003,3.088675e+002
1.901987e+003,3.122983e+002
1.903916e+003,3.130415e+002
1.905844e+003,3.065327e+002
1.907773e+003,3.049166e+002
1.909701e+003,3.078969e+002
1.911630e+003,3.015028e+002
1.913558e+003,2.997553e+002
1.915487e+003,3.011432e+002
1.917415e+003,3.120952e+002
1.919344e+003,3.079141e+002
1.921272e+003,3.022520e+002
1.923200e+003,3.013283e+002
1.925129e+003,3.111688e+002
1.927057e+003,3.090091e+002
1.928986e+003,3.043642e+002
1.930914e+003,3.035093e+002
1.932843e+003,3.121716e+002
1.934771e+003,3.188878e+002
1.936700e+003,3.121019e+002
1.938628e+003,3.073444e+002
1.940557e+003,3.110549e+002
1.942485e+003,3.208496e+002
1.944414e+003,3.184344e+002
1.946342e+003,3.199402e+002
1.948271e+003,3.274617e+002
1.950199e+003,3.212791e+002
1.952127e+003,3.245847e+002
1.954056e+003,3.307128e+002
1.955984e+003,3.308182e+002
1.957913e+003,3.312572e+002
1.959841e+003,3.286915e+002
1.961770e+003,3.270453e+002
1.963698e+003,3.251200e+002
1.965627e+003,3.235180e+002
1.967555e+003,3.333826e+002
1.969484e+003,3.441892e+002
1.971412e+003,3.382802e+002
1.973341e+003,3.388636e+002
1.975269e+003,3.404337e+002
1.977198e+003,3.383718e+002
1.979126e+003,3.419016e+002
1.981054e+003,3.426970e+002
1.982983e+003,3.378685e+002
1.984911e+003,3.271922e+002
1.986840e+003,3.302306e+002
1.988768e+003,3.461565e+002
1.990697e+003,3.508773e+002
1.992625e+003,3.489646e+002
1.994554e+003,3.566771e+002
1.996482e+003,3.453303e+002
1.998411e+003,3.445475e+002
2.000339e+003,3.612648e+002
2.002268e+003,3.464035e+002
2.004196e+003,3.529854e+002
2.006125e+003,3.580105e+002
2.008053e+003,3.470076e+002
2.009981e+003,3.531560e+002
2.011910e+003,3.560102e+002
2.013838e+003,3.580774e+002
2.015767e+003,3.646670e+002
2.017695e+003,3.623258e+002
2.019624e+003,3.574336e+002
2.021552e+003,3.658860e+002
2.023481e+003,3.592489e+002
2.025409e+003,3.602612e+002
2.027338e+003,3.704006e+002
2.029266e+003,3.736861e+002
2.031195e+003,3.692263e+002
2.033123e+003,3.755183e+002
2.035052e+003,3.825204e+002
2.036980e+003,3.810025e+002
2.038908e+003,3.801653e+002
2.040837e+003,3.798291e+002
2.042765e+003,3.796809e+002
2.044694e+003,3.800409e+002
2.046622e+003,3.816912e+002
2.048551e+003,3.861288e+002
2.050479e+003,3.848287e+002
2.052408e+003,3.833566e+002
2.054336e+003,3.854120e+002
2.056265e+003,3.820026e+002
2.058193e+003,3.992448e+002
2.060122e+003,3.882987e+002
2.062050e+003,3.890157e+002
2.063979e+003,3.867885e+002
2.065907e+003,3.949448e+002
2.067835e+003,4.020938e+002
2.069764e+003,4.011324e+002
2.071692e+003,4.068011e+002
2.073621e+003,4.125816e+002
2.075549e+003,4.047257e+002
2.077478e+003,4.034650e+002
2.079406e+003,4.155215e+002
2.081335e+003,4.077124e+002
2.083263e+003,4.059044e+002
2.085192e+003,4.141969e+002
2.087120e+003,4.129621e+002
2.089049e+003,4.111748e+002
2.090977e+003,4.118227e+002
2.092906e+003,4.055269e+002
2.094834e+003,4.088055e+002
2.096762e+003,4.172542e+002
2.098691e+003,4.214803e+002
2.100619e+003,4.221788e+002
2.102548e+003,4.230595e+002
2.104476e+003,4.213353e+002
2.106405e+003,4.153634e+002
2.108333e+003,4.319387e+002
2.110262e+003,4.259235e+002
2.112190e+003,4.324390e+002
2.114119e+003,4.120829e+002
2.116047e+003,4.288913e+002
2.117976e+003,4.382782e+002
2.119904e+003,4.274685e+002
2.121833e+003,4.345618e+002
2.123761e+003,4.364776e+002
2.125689e+003,4.343177e+002
2.127618e+003,4.394844e+002
2.129546e+003,4.364566e+002
2.131475e+003,4.353559e+002
2.133403e+003,4.324196e+002
2.135332e+003,4.317371e+002
2.137260e+003,4.292926e+002
2.139189e+003,4.404980e+002
2.141117e+003,4.398705e+002
2.143046e+003,4.395208e+002
2.144974e+003,4.366706e+002
2.146903e+003,4.433420e+002
2.148831e+003,4.429877e+002
2.150760e+003,4.406941e+002
2.152688e+003,4.416704e+002
2.154616e+003,4.397763e+002
2.156545e+003,4.400764e+002
2.158473e+003,4.389647e+002
2.160402e+003,4.347780e+002
2.162330e+003,4.463735e+002
2.164259e+003,4.374402e+002
2.166187e+003,4.551515e+002
2.168116e+003,4.531241e+002
2.170044e+003,4.635841e+002
2.171973e+003,4.613275e+002
2.173901e+003,4.630937e+002
2.175830e+003,4.761565e+002
2.177758e+003,4.839944e+002
2.179687e+003,4.910388e+002
2.181615e+003,5.006497e+002
2.183543e+003,5.004207e+002
2.185472e+003,4.958604e+002
2.187400e+003,4.813591e+002
2.189329e+003,4.748067e+002
2.191257e+003,4.754536e+002
2.193186e+003,4.654630e+002
2.195114e+003,4.586239e+002
2.197043e+003,4.509549e+002
2.198971e+003,4.514237e+002
2.200900e+003,4.505800e+002
2.202828e+003,4.518033e+002
2.204757e+003,4.510616e+002
2.206685e+003,4.496154e+002
2.208614e+003,4.518191e+002
2.210542e+003,4.437958e+002
2.212470e+003,4.358091e+002
2.214399e+003,4.432347e+002
2.216327e+003,4.571256e+002
2.218256e+003,4.582794e+002
2.220184e+003,4.508253e+002
2.222113e+003,4.446644e+002
2.224041e+003,4.537688e+002
2.225970e+003,4.589342e+002
2.227898e+003,4.607650e+002
2.229827e+003,4.577145e+002
2.231755e+003,4.551458e+002
2.233684e+003,4.557854e+002
2.235612e+003,4.533452e+002
2.237541e+003,4.536415e+002
2.239469e+003,4.573822e+002
2.241397e+003,4.559301e+002
2.243326e+003,4.515592e+002
2.245254e+003,4.579567e+002
2.247183e+003,4.642002e+002
2.249111e+003,4.643341e+002
2.251040e+003,4.677085e+002
2.252968e+003,4.808366e+002
2.254897e+003,4.734714e+002
2.256825e+003,4.691965e+002
2.258754e+003,4.708043e+002
2.260682e+003,4.703433e+002
2.262611e+003,4.759381e+002
2.264539e+003,4.673170e+002
2.266468e+003,4.521577e+002
2.268396e+003,4.550370e+002
2.270324e+003,4.411348e+002
2.272253e+003,4.461155e+002
2.274181e+003,4.528745e+002
2.276110e+003,4.622683e+002
2.278038e+003,4.632104e+002
2.279967e+003,4.619740e+002
2.281895e+003,4.595105e+002
2.283824e+003,4.662954e+002
2.285752e+003,4.687014e+002
2.287681e+003,4.652737e+002
2.289609e+003,4.679416e+002
2.291538e+003,4.561539e+002
2.293466e+003,4.549788e+002
2.295395e+003,4.487929e+002
2.297323e+003,4.592671e+002
2.299251e+003,4.555533e+002
2.301180e+003,4.619297e+002
2.303108e+003,4.695946e+002
2.305037e+003,4.557367e+002
2.306965e+003,4.492983e+002
2.308894e+003,4.432867e+002
2.310822e+003,4.421029e+002
2.312751e+003,4.366584e+002
2.314679e+003,4.300906e+002
2.316608e+003,4.339797e+002
2.318536e+003,4.263385e+002
2.320465e+003,4.421812e+002
2.322393e+003,4.382098e+002
2.324322e+003,4.286841e+002
2.326250e+003,4.330376e+002
2.328178e+003,4.172141e+002
2.330107e+003,4.360294e+002
2.332035e+003,4.368645e+002
2.333964e+003,4.333958e+002
2.335892e+003,4.251071e+002
2.337821e+003,4.201325e+002
2.339749e+003,4.200459e+002
2.341678e+003,4.168868e+002
2.343606e+003,4.117253e+002
2.345535e+003,4.126721e+002
2.347463e+003,4.147437e+002
2.349392e+003,4.131568e+002
2.351320e+003,4.049018e+002
2.353249e+003,4.043521e+002
2.355177e+003,4.116196e+002
2.357105e+003,4.101808e+002
2.359034e+003,4.111053e+002
2.360962e+003,4.083746e+002
2.362891e+003,4.123723e+002
2.364819e+003,4.179071e+002
2.366748e+003,4.122804e+002
2.368676e+003,4.103098e+002
2.370605e+003,3.961352e+002
2.372533e+003,4.037716e+002
2.374462e+003,4.024491e+002
2.376390e+003,4.037106e+002
2.378319e+003,3.952973e+002
2.380247e+003,3.822173e+002
2.382176e+003,4.029494e+002
2.384104e+003,4.022679e+002
2.386032e+003,3.861729e+002
2.387961e+003,3.916111e+002
2.389889e+003,4.021698e+002
2.391818e+003,4.028167e+002
2.393746e+003,4.027261e+002
2.395675e+003,3.888598e+002
2.397603e+003,4.000890e+002
2.399532e+003,4.006039e+002
2.401460e+003,4.133195e+002
2.403389e+003,3.960337e+002
2.405317e+003,3.981754e+002
2.407246e+003,3.939208e+002
2.409174e+003,3.970909e+002
2.411103e+003,4.028276e+002
2.413031e+003,3.948771e+002
2.414959e+003,3.962130e+002
2.416888e+003,4.047113e+002
2.418816e+003,4.064725e+002
2.420745e+003,4.021067e+002
2.422673e+003,3.924281e+002
2.424602e+003,4.044749e+002
2.426530e+003,4.028741e+002
2.428459e+003,4.060891e+002
2.430387e+003,4.065133e+002
2.432316e+003,4.147858e+002
2.434244e+003,4.032697e+002
2.436173e+003,3.890083e+002
2.438101e+003,3.850543e+002
2.440030e+003,3.836621e+002
2.441958e+003,3.875088e+002
2.443886e+003,3.954253e+002
2.445815e+003,3.827547e+002
2.447743e+003,3.801819e+002
2.449672e+003,3.859829e+002
2.451600e+003,3.795348e+002
2.453529e+003,3.792457e+002
2.455457e+003,3.728497e+002
2.457386e+003,3.688130e+002
2.459314e+003,3.690550e+002
2.461243e+003,3.710444e+002
2.463171e+003,3.773064e+002
2.465100e+003,3.810688e+002
2.467028e+003,3.780084e+002
2.468957e+003,3.795357e+002
2.470885e+003,3.801266e+002
2.472813e+003,3.664646e+002
2.474742e+003,3.817302e+002
2.476670e+003,3.720551e+002
2.478599e+003,3.716743e+002
2.480527e+003,3.730824e+002
2.482456e+003,3.673419e+002
2.484384e+003,3.805004e+002
2.486313e+003,3.785455e+002
2.488241e+003,3.758104e+002
2.490170e+003,3.797313e+002
2.492098e+003,3.777484e+002
2.494027e+003,3.744913e+002
2.495955e+003,3.703133e+002
2.497884e+003,3.743769e+002
2.499812e+003,3.731599e+002
2.501740e+003,3.681404e+002
2.503669e+003,3.683818e+002
2.505597e+003,3.655673e+002
2.507526e+003,3.668933e+002
2.509454e+003,3.773352e+002
2.511383e+003,3.661108e+002
2.513311e+003,3.695171e+002
2.515240e+003,3.884413e+002
2.517168e+003,3.861901e+002
2.519097e+003,3.744065e+002
2.521025e+003,3.681982e+002
2.522954e+003,3.557560e+002
2.524882e+003,3.746833e+002
2.526811e+003,3.714935e+002
2.528739e+003,3.670327e+002
2.530667e+003,3.581704e+002
2.532596e+003,3.717914e+002
2.534524e+003,3.749460e+002
2.536453e+003,3.715142e+002
2.538381e+003,3.750124e+002
2.540310e+003,3.826967e+002
2.542238e+003,3.804524e+002
2.544167e+003,3.785653e+002
2.546095e+003,3.885173e+002
2.548024e+003,3.864958e+002
2.549952e+003,3.717894e+002
2.551881e+003,3.718367e+002
2.553809e+003,3.760125e+002
2.555738e+003,3.831926e+002
2.557666e+003,3.762951e+002
2.559594e+003,3.802874e+002
2.561523e+003,3.790269e+002
2.563451e+003,3.794039e+002
2.565380e+003,3.876778e+002
2.567308e+003,4.007903e+002
2.569237e+003,4.104092e+002
2.571165e+003,4.010916e+002
2.573094e+003,3.913026e+002
2.575022e+003,3.983988e+002
2.576951e+003,4.061305e+002
2.578879e+003,4.108120e+002
2.580808e+003,4.207868e+002
2.582736e+003,4.320001e+002
2.584665e+003,4.367174e+002
2.586593e+003,4.458028e+002
2.588521e+003,4.483314e+002
2.590450e+003,4.457401e+002
2.592378e+003,4.422845e+002
2.594307e+003,4.345965e+002
2.596235e+003,4.325888e+002
2.598164e+003,4.390229e+002
2.600092e+003,4.447338e+002
2.602021e+003,4.399644e+002
2.603949e+003,4.446169e+002
2.605878e+003,4.536957e+002
2.607806e+003,4.517080e+002
2.609735e+003,4.538610e+002
2.611663e+003,4.599783e+002
2.613592e+003,4.544665e+002
2.615520e+003,4.520203e+002
2.617448e+003,4.508993e+002
2.619377e+003,4.424096e+002
2.621305e+003,4.401986e+002
2.623234e+003,4.447931e+002
2.625162e+003,4.396564e+002
2.627091e+003,4.462734e+002
2.629019e+003,4.401249e+002
2.630948e+003,4.424541e+002
2.632876e+003,4.538494e+002
2.634805e+003,4.655254e+002
2.636733e+003,4.638402e+002
2.638662e+003,4.619984e+002
2.640590e+003,4.693434e+002
2.642519e+003,4.787299e+002
2.644447e+003,4.864188e+002
2.646375e+003,4.881719e+002
2.648304e+003,4.946194e+002
2.650232e+003,4.869772e+002
2.652161e+003,4.948651e+002
2.654089e+003,5.056093e+002
2.656018e+003,5.121577e+002
2.657946e+003,5.008434e+002
2.659875e+003,4.857330e+002
2.661803e+003,4.769892e+002
2.663732e+003,4.798520e+002
2.665660e+003,4.830978e+002
2.667589e+003,4.758825e+002
2.669517e+003,4.933229e+002
2.671446e+003,4.836292e+002
2.673374e+003,4.889546e+002
2.675302e+003,5.003982e+002
2.677231e+003,4.952440e+002
2.679159e+003,4.956207e+002
2.681088e+003,5.059572e+002
2.683016e+003,5.138859e+002
2.684945e+003,5.179407e+002
2.686873e+003,5.322266e+002
2.688802e+003,5.467327e+002
2.690730e+003,5.665095e+002
2.692659e+003,5.736938e+002
2.694587e+003,5.852673e+002
2.696516e+003,5.975793e+002
2.698444e+003,6.356456e+002
2.700373e+003,6.521236e+002
2.702301e+003,6.814545e+002
2.704229e+003,6.955244e+002
2.706158e+003,7.201982e+002
2.708086e+003,7.767844e+002
2.710015e+003,8.297888e+002
2.711943e+003,8.644014e+002
2.713872e+003,9.008003e+002
2.715800e+003,9.402661e+002
2.717729e+003,9.725811e+002
2.719657e+003,9.933027e+002
2.721586e+003,9.863834e+002
2.723514e+003,9.717451e+002
2.725443e+003,9.382338e+002
2.727371e+003,8.783480e+002
2.729300e+003,8.348874e+002
2.731228e+003,7.659783e+002
2.733156e+003,7.032645e+002
2.735085e+003,6.651049e+002
2.737013e+003,6.404594e+002
2.738942e+003,6.153461e+002
2.740870e+003,5.822941e+002
2.742799e+003,5.527807e+002
2.744727e+003,5.393976e+002
2.746656e+003,5.316379e+002
2.748584e+003,5.314274e+002
2.750513e+003,5.125761e+002
2.752441e+003,4.899273e+002
2.754370e+003,5.044531e+002
2.756298e+003,5.122377e+002
2.758227e+003,5.064187e+002
2.760155e+003,5.119518e+002
2.762083e+003,5.117664e+002
2.764012e+003,4.942141e+002
2.765940e+003,4.930353e+002
2.767869e+003,5.025105e+002
2.769797e+003,4.921122e+002
2.771726e+003,4.939724e+002
2.773654e+003,4.970766e+002
2.775583e+003,4.965439e+002
2.777511e+003,4.998097e+002
2.779440e+003,5.052842e+002
2.781368e+003,5.002847e+002
2.783297e+003,5.027151e+002
2.785225e+003,5.106633e+002
2.787154e+003,5.091207e+002
2.789082e+003,5.194658e+002
2.791010e+003,5.155651e+002
2.792939e+003,5.238713e+002
2.794867e+003,5.432715e+002
2.796796e+003,5.475495e+002
2.798724e+003,5.449101e+002
2.800653e+003,5.615363e+002
2.802581e+003,5.688351e+002
2.804510e+003,5.873887e+002
2.806438e+003,6.019145e+002
2.808367e+003,6.060045e+002
2.810295e+003,6.195142e+002
2.812224e+003,6.429058e+002
2.814152e+003,6.640237e+002
2.816081e+003,7.110911e+002
2.818009e+003,7.465486e+002
2.819938e+003,8.066746e+002
2.821866e+003,8.688367e+002
2.823794e+003,9.603936e+002
2.825723e+003,1.085554e+003
2.827651e+003,1.239774e+003
2.829580e+003,1.487109e+003
2.831508e+003,1.871802e+003
2.833437e+003,2.355094e+003
2.835365e+003,2.989839e+003
2.837294e+003,3.849052e+003
2.839222e+003,4.930489e+003
2.841151e+003,6.193000e+003
2.843079e+003,7.464530e+003
2.845008e+003,8.379559e+003
2.846936e+003,8.640779e+003
2.848865e+003,8.322302e+003
2.850793e+003,7.657014e+003
2.852721e+003,6.947064e+003
2.854650e+003,6.319410e+003
2.856578e+003,5.792345e+003
2.858507e+003,5.332208e+003
2.860435e+003,5.009917e+003
2.862364e+003,4.766177e+003
2.864292e+003,4.594656e+003
2.866221e+003,4.484997e+003
2.868149e+003,4.474470e+003
2.870078e+003,4.593575e+003
2.872006e+003,4.862150e+003
2.873935e+003,5.494992e+003
2.875863e+003,6.805056e+003
2.877792e+003,9.306007e+003
2.879720e+003,1.236935e+004
2.881648e+003,1.320621e+004
2.883577e+003,1.072739e+004
2.885505e+003,8.016441e+003
2.887434e+003,6.568124e+003
2.889362e+003,5.821588e+003
2.891291e+003,5.395797e+003
2.893219e+003,5.177492e+003
2.895148e+003,4.999343e+003
2.897076e+003,4.845859e+003
2.899005e+003,4.701038e+003
2.900933e+003,4.471189e+003
2.902862e+003,4.217192e+003
2.904790e+003,4.011425e+003
2.906719e+003,3.735411e+003
2.908647e+003,3.483429e+003
2.910575e+003,3.293352e+003
2.912504e+003,3.145302e+003
2.914432e+003,3.000667e+003
2.916361e+003,2.892685e+003
2.918289e+003,2.827296e+003
2.920218e+003,2.801381e+003
2.922146e+003,2.781206e+003
2.924075e+003,2.785588e+003
2.926003e+003,2.763444e+003
2.927932e+003,2.690188e+003
2.929860e+003,2.607952e+003
2.931789e+003,2.485408e+003
2.933717e+003,2.330587e+003
2.935646e+003,2.169004e+003
2.937574e+003,1.984785e+003
2.939502e+003,1.771937e+003
2.941431e+003,1.584954e+003
2.943359e+003,1.362910e+003
2.945288e+003,1.167340e+003
2.947216e+003,9.978523e+002
2.949145e+003,8.768262e+002
2.951073e+003,8.175518e+002
2.953002e+003,7.468292e+002
2.954930e+003,7.075891e+002
2.956859e+003,6.827148e+002
2.958787e+003,6.550962e+002
2.960716e+003,6.418421e+002
2.962644e+003,6.151386e+002
2.964573e+003,5.891161e+002
2.966501e+003,5.550300e+002
2.968429e+003,5.398401e+002
2.970358e+003,5.312603e+002
2.972286e+003,5.269802e+002
2.974215e+003,5.224844e+002
2.976143e+003,5.119707e+002
2.978072e+003,5.176461e+002
2.980000e+003,5.117021e+002
2.981929e+003,5.179276e+002
2.983857e+003,5.052490e+002
2.985786e+003,4.959693e+002
2.987714e+003,4.847231e+002
2.989643e+003,4.932929e+002
2.991571e+003,4.850478e+002
2.993500e+003,4.740778e+002
2.995428e+003,4.706147e+002
2.997356e+003,4.716511e+002
2.999285e+003,4.595832e+002
3.001213e+003,4.596379e+002
3.003142e+003,4.555181e+002
3.005070e+003,4.402058e+002
3.006999e+003,4.386544e+002
3.008927e+003,4.294967e+002
3.010856e+003,4.251419e+002
3.012784e+003,4.257133e+002
3.014713e+003,4.183490e+002
3.016641e+003,4.212721e+002
3.018570e+003,4.224547e+002
3.020498e+003,4.145202e+002
3.022427e+003,3.934044e+002
3.024355e+003,3.979011e+002
3.026283e+003,3.948496e+002
3.028212e+003,3.963066e+002
3.030140e+003,4.026992e+002
3.032069e+003,4.007446e+002
3.033997e+003,3.859238e+002
3.035926e+003,3.754896e+002
3.037854e+003,3.769406e+002
3.039783e+003,3.767780e+002
3.041711e+003,3.737394e+002
3.043640e+003,3.651552e+002
3.045568e+003,3.619717e+002
3.047497e+003,3.849621e+002
3.049425e+003,3.682755e+002
3.051354e+003,3.627526e+002
3.053282e+003,3.638589e+002
3.055210e+003,3.593468e+002
3.057139e+003,3.551372e+002
3.059067e+003,3.550573e+002
3.060996e+003,3.568654e+002
3.062924e+003,3.514363e+002
3.064853e+003,3.450252e+002
3.066781e+003,3.410323e+002
3.068710e+003,3.470560e+002
3.070638e+003,3.507605e+002
3.072567e+003,3.500462e+002
3.074495e+003,3.382083e+002
3.076424e+003,3.466097e+002
3.078352e+003,3.441643e+002
3.080281e+003,3.461441e+002
3.082209e+003,3.524932e+002
3.084137e+003,3.501353e+002
3.086066e+003,3.425710e+002
3.087994e+003,3.286095e+002
3.089923e+003,3.345078e+002
3.091851e+003,3.140143e+002
3.093780e+003,3.163425e+002
3.095708e+003,3.142231e+002
3.097637e+003,3.135031e+002
3.099565e+003,2.953547e+002
3.101494e+003,2.903094e+002
3.103422e+003,2.917846e+002
3.105351e+003,2.960913e+002
3.107279e+003,2.988329e+002
3.109208e+003,2.931286e+002
3.111136e+003,2.911179e+002
3.113064e+003,2.875998e+002
3.114993e+003,2.947808e+002
3.116921e+003,2.855239e+002
3.118850e+003,2.880266e+002
3.120778e+003,2.785950e+002
3.122707e+003,2.855215e+002
3.124635e+003,2.825049e+002
3.126564e+003,2.742842e+002
3.128492e+003,2.850445e+002
3.130421e+003,2.892837e+002
3.132349e+003,2.845085e+002
3.134278e+003,2.850218e+002
3.136206e+003,2.859255e+002
3.138135e+003,2.762648e+002
3.140063e+003,2.742752e+002
3.141991e+003,2.778359e+002
3.143920e+003,2.667979e+002
3.145848e+003,2.703354e+002
3.147777e+003,2.705041e+002
3.149705e+003,2.683957e+002
3.151634e+003,2.721005e+002
3.153562e+003,2.689406e+002
3.155491e+003,2.647413e+002
3.157419e+003,2.741974e+002
3.159348e+003,2.765923e+002
3.161276e+003,2.724346e+002
3.163205e+003,2.690720e+002
3.165133e+003,2.779550e+002
3.167062e+003,2.718752e+002
3.168990e+003,2.603725e+002
3.170918e+003,2.628805e+002
3.172847e+003,2.699012e+002
3.174775e+003,2.684859e+002
3.176704e+003,2.696281e+002
3.178632e+003,2.813952e+002
3.180561e+003,2.712809e+002
3.182489e+003,2.712325e+002
3.184418e+003,2.740300e+002
3.186346e+003,2.668457e+002
3.188275e+003,2.643692e+002
3.190203e+003,2.702258e+002
3.192132e+003,2.667715e+002
3.194060e+003,2.655219e+002
3.195989e+003,2.730021e+002
3.197917e+003,2.772904e+002
3.199845e+003,2.623702e+002
3.201774e+003,2.713092e+002
3.203702e+003,2.714559e+002
3.205631e+003,2.656251e+002
3.207559e+003,2.588547e+002
3.209488e+003,2.640327e+002
3.211416e+003,2.696382e+002
3.213345e+003,2.650300e+002
3.215273e+003,2.653327e+002
3.217202e+003,2.633613e+002
3.219130e+003,2.618192e+002
3.221059e+003,2.710699e+002
3.222987e+003,2.678739e+002
3.224916e+003,2.652944e+002
3.226844e+003,2.699734e+002
3.228772e+003,2.573520e+002
3.230701e+003,2.619520e+002
3.232629e+003,2.733183e+002
3.234558e+003,2.605268e+002
3.236486e+003,2.610454e+002
3.238415e+003,2.650136e+002
3.240343e+003,2.552096e+002
3.242272e+003,2.683230e+002
3.244200e+003,2.657459e+002
3.246129e+003,2.691814e+002
3.248057e+003,2.667906e+002
3.249986e+003,2.692317e+002
3.251914e+003,2.580023e+002
3.253843e+003,2.509322e+002
3.255771e+003,2.684220e+002
3.257699e+003,2.626940e+002
3.259628e+003,2.479735e+002
3.261556e+003,2.559474e+002
3.263485e+003,2.721135e+002
3.265413e+003,2.582097e+002
3.267342e+003,2.600043e+002
3.269270e+003,2.634793e+002
3.271199e+003,2.643439e+002
3.273127e+003,2.578357e+002
3.275056e+003,2.590293e+002
3.276984e+003,2.617429e+002
3.278913e+003,2.711504e+002
3.280841e+003,2.679552e+002
3.282770e+003,2.677924e+002
3.284698e+003,2.687584e+002
3.286626e+003,2.663026e+002
3.288555e+003,2.713144e+002
3.290483e+003,2.682159e+002
3.292412e+003,2.726441e+002
3.294340e+003,2.655683e+002
3.296269e+003,2.749689e+002
3.298197e+003,2.645717e+002
3.300126e+003,2.633311e+002
3.302054e+003,2.656818e+002
3.303983e+003,2.618335e+002
3.305911e+003,2.609386e+002
3.307840e+003,2.624548e+002
3.309768e+003,2.658012e+002
3.311697e+003,2.595668e+002
3.313625e+003,2.672268e+002
3.315553e+003,2.679537e+002
3.317482e+003,2.642380e+002
3.319410e+003,2.690188e+002
3.321339e+003,2.611035e+002
3.323267e+003,2.596378e+002
3.325196e+003,2.680078e+002
3.327124e+003,2.691900e+002
3.329053e+003,2.610905e+002
3.330981e+003,2.563588e+002
3.332910e+003,2.651961e+002
3.334838e+003,2.692344e+002
3.336767e+003,2.699241e+002
3.338695e+003,2.697691e+002
3.340624e+003,2.585439e+002
3.342552e+003,2.539521e+002
3.344480e+003,2.658687e+002
3.346409e+003,2.704310e+002
3.348337e+003,2.638789e+002
3.350266e+003,2.617417e+002
3.352194e+003,2.698658e+002
3.354123e+003,2.559422e+002
3.356051e+003,2.633293e+002
3.357980e+003,2.741911e+002
3.359908e+003,2.744594e+002
3.361837e+003,2.599838e+002
3.363765e+003,2.663237e+002
3.365694e+003,2.689434e+002
3.367622e+003,2.757996e+002
3.369551e+003,2.787707e+002
3.371479e+003,2.666299e+002
3.373407e+003,2.733852e+002
3.375336e+003,2.641279e+002
3.377264e+003,2.632212e+002
3.379193e+003,2.700788e+002
3.381121e+003,2.782194e+002
3.383050e+003,2.785029e+002
3.384978e+003,2.732181e+002
3.386907e+003,2.674743e+002
3.388835e+003,2.779152e+002
3.390764e+003,2.652178e+002
3.392692e+003,2.652368e+002
3.394621e+003,2.617166e+002
3.396549e+003,2.816547e+002
3.398478e+003,2.706060e+002
3.400406e+003,2.648679e+002
