5.065916e+001,6.771361e+002
5.258762e+001,6.315292e+002
5.451609e+001,5.971381e+002
5.644456e+001,5.789457e+002
5.837302e+001,5.662834e+002
6.030149e+001,5.437490e+002
6.222996e+001,5.187040e+002
6.415842e+001,5.047207e+002
6.608689e+001,4.872025e+002
6.801536e+001,4.665286e+002
6.994382e+001,4.628378e+002
7.187229e+001,4.595215e+002
7.380076e+001,4.508530e+002
7.572923e+001,4.385525e+002
7.765769e+001,4.257525e+002
7.958616e+001,4.129217e+002
8.151463e+001,4.029856e+002
8.344309e+001,3.908387e+002
8.537156e+001,3.815695e+002
8.730003e+001,3.823960e+002
8.922849e+001,3.812891e+002
9.115696e+001,3.658887e+002
9.308543e+001,3.569452e+002
9.501389e+001,3.575752e+002
9.694236e+001,3.501927e+002
9.887083e+001,3.458768e+002
1.007993e+002,3.368492e+002
1.027278e+002,3.264506e+002
1.046562e+002,3.162619e+002
1.065847e+002,2.999435e+002
1.085132e+002,2.858823e+002
1.104416e+002,2.693451e+002
1.123701e+002,2.554539e+002
1.142986e+002,2.483346e+002
1.162270e+002,2.341860e+002
1.181555e+002,2.215684e+002
1.200840e+002,2.155654e+002
1.220124e+002,2.115592e+002
1.239409e+002,2.007049e+002
1.258694e+002,1.908186e+002
1.277978e+002,1.893503e+002
1.297263e+002,1.864631e+002
1.316548e+002,1.786298e+002
1.335832e+002,1.717789e+002
1.355117e+002,1.693996e+002
1.374402e+002,1.697099e+002
1.393686e+002,1.625421e+002
1.412971e+002,1.506782e+002
1.432256e+002,1.606369e+002
1.451540e+002,1.574627e+002
1.470825e+002,1.541686e+002
1.490110e+002,1.493563e+002
1.509394e+002,1.440544e+002
1.528679e+002,1.578684e+002
1.547964e+002,1.512802e+002
1.567248e+002,1.438959e+002
1.586533e+002,1.424255e+002
1.605818e+002,1.453248e+002
1.625102e+002,1.468293e+002
1.644387e+002,1.466337e+002
1.663672e+002,1.428980e+002
1.682956e+002,1.388964e+002
1.702241e+002,1.401392e+002
1.721526e+002,1.460448e+002
1.740810e+002,1.450038e+002
1.760095e+002,1.402242e+002
1.779380e+002,1.347100e+002
1.798664e+002,1.312794e+002
1.817949e+002,1.458570e+002
1.837234e+002,1.464951e+002
1.856518e+002,1.396806e+002
1.875803e+002,1.344842e+002
1.895088e+002,1.359785e+002
1.914372e+002,1.418268e+002
1.933657e+002,1.365040e+002
1.952942e+002,1.311498e+002
1.972226e+002,1.331061e+002
1.991511e+002,1.375220e+002
2.010796e+002,1.373067e+002
2.030080e+002,1.346160e+002
2.049365e+002,1.307020e+002
2.068650e+002,1.294566e+002
2.087934e+002,1.379780e+002
2.107219e+002,1.449058e+002
2.126504e+002,1.330990e+002
2.145788e+002,1.222778e+002
2.165073e+002,1.238987e+002
2.184358e+002,1.184586e+002
2.203642e+002,1.231673e+002
2.222927e+002,1.162114e+002
2.242212e+002,1.097770e+002
2.261496e+002,1.123417e+002
2.280781e+002,1.074926e+002
2.300066e+002,1.078699e+002
2.319350e+002,1.085876e+002
2.338635e+002,1.056352e+002
2.357920e+002,9.997668e+001
2.377204e+002,1.012267e+002
2.396489e+002,1.069984e+002
2.415774e+002,1.066795e+002
2.435058e+002,1.018427e+002
2.454343e+002,9.836021e+001
2.473628e+002,1.020186e+002
2.492912e+002,1.031244e+002
2.512197e+002,9.940252e+001
2.531482e+002,1.006566e+002
2.550766e+002,1.073969e+002
2.570051e+002,9.781586e+001
2.589336e+002,9.838161e+001
2.608620e+002,9.234396e+001
2.627905e+002,8.833591e+001
2.647190e+002,9.203393e+001
2.666474e+002,9.257295e+001
2.685759e+002,8.669897e+001
2.705044e+002,8.624805e+001
2.724328e+002,9.053350e+001
2.743613e+002,9.410265e+001
2.762898e+002,9.037401e+001
2.782182e+002,8.746934e+001
2.801467e+002,9.024098e+001
2.820752e+002,9.276563e+001
2.840036e+002,9.102960e+001
2.859321e+002,8.719215e+001
2.878606e+002,8.831952e+001
2.897890e+002,8.571721e+001
2.917175e+002,8.143636e+001
2.936460e+002,7.945482e+001
2.955744e+002,8.246535e+001
2.975029e+002,8.274937e+001
2.994314e+002,8.242387e+001
3.013598e+002,8.263947e+001
3.032883e+002,8.303521e+001
3.052168e+002,8.206860e+001
3.071452e+002,7.816016e+001
3.090737e+002,8.165577e+001
3.110022e+002,8.629216e+001
3.129306e+002,8.584525e+001
3.148591e+002,7.763894e+001
3.167876e+002,6.758991e+001
3.187160e+002,6.439716e+001
3.206445e+002,7.681541e+001
3.225730e+002,8.953205e+001
3.245014e+002,8.607784e+001
3.264299e+002,8.011721e+001
3.283584e+002,8.484383e+001
3.302868e+002,8.041647e+001
3.322153e+002,7.678501e+001
3.341438e+002,8.176192e+001
3.360722e+002,7.903931e+001
3.380007e+002,7.454641e+001
3.399292e+002,7.857316e+001
3.418576e+002,8.049343e+001
3.437861e+002,7.577956e+001
3.457146e+002,7.382403e+001
3.476430e+002,7.463020e+001
3.495715e+002,7.654293e+001
3.515000e+002,8.145854e+001
3.534284e+002,8.549429e+001
3.553569e+002,8.105930e+001
3.572854e+002,6.772184e+001
3.592138e+002,7.078220e+001
3.611423e+002,7.339598e+001
3.630708e+002,7.440147e+001
3.649992e+002,7.869481e+001
3.669277e+002,7.731673e+001
3.688562e+002,7.963716e+001
3.707846e+002,8.165214e+001
3.727131e+002,8.043085e+001
3.746416e+002,7.696351e+001
3.765700e+002,7.756628e+001
3.784985e+002,8.101290e+001
3.804270e+002,8.176377e+001
3.823554e+002,8.182836e+001
3.842839e+002,8.221973e+001
3.862124e+002,8.157298e+001
3.881408e+002,8.005247e+001
3.900693e+002,8.139623e+001
3.919978e+002,8.304884e+001
3.939262e+002,8.325951e+001
3.958547e+002,8.156147e+001
3.977832e+002,7.851743e+001
3.997116e+002,8.172164e+001
4.016401e+002,7.752914e+001
4.035686e+002,7.556449e+001
4.054970e+002,7.906284e+001
4.074255e+002,7.147310e+001
4.093540e+002,7.484556e+001
4.112824e+002,7.842773e+001
4.132109e+002,8.069895e+001
4.151394e+002,7.864227e+001
4.170678e+002,7.073955e+001
4.189963e+002,7.143714e+001
4.209248e+002,7.919167e+001
4.228532e+002,8.516741e+001
4.247817e+002,8.412997e+001
4.267102e+002,7.606390e+001
4.286386e+002,6.730272e+001
4.305671e+002,7.193317e+001
4.324956e+002,7.990199e+001
4.344240e+002,7.927571e+001
4.363525e+002,7.293340e+001
4.382810e+002,7.556542e+001
4.402094e+002,8.168904e+001
4.421379e+002,8.110564e+001
4.440664e+002,7.882832e+001
4.459948e+002,7.871893e+001
4.479233e+002,8.075745e+001
4.498518e+002,7.953086e+001
4.517802e+002,7.880640e+001
4.537087e+002,7.937871e+001
4.556372e+002,7.791797e+001
4.575656e+002,7.430537e+001
4.594941e+002,7.228371e+001
4.614226e+002,7.346954e+001
4.633510e+002,7.229313e+001
4.652795e+002,7.116625e+001
4.672080e+002,7.048821e+001
4.691364e+002,6.758306e+001
4.710649e+002,5.812956e+001
4.729934e+002,7.896421e+001
4.749218e+002,7.862145e+001
4.768503e+002,7.497332e+001
4.787788e+002,7.686600e+001
4.807072e+002,7.680115e+001
4.826357e+002,8.067511e+001
4.845642e+002,7.330474e+001
4.864926e+002,7.459380e+001
4.884211e+002,7.911238e+001
4.903496e+002,7.832825e+001
4.922780e+002,7.489516e+001
4.942065e+002,7.272845e+001
4.961350e+002,7.262925e+001
4.980634e+002,7.593358e+001
4.999919e+002,7.914890e+001
5.019204e+002,7.755464e+001
5.038488e+002,7.151979e+001
5.057773e+002,7.323096e+001
5.077058e+002,7.510374e+001
5.096342e+002,7.708512e+001
5.115627e+002,7.948732e+001
5.134912e+002,8.042201e+001
5.154197e+002,7.420207e+001
5.173481e+002,6.893359e+001
5.192766e+002,7.102182e+001
5.212051e+002,7.510396e+001
5.231335e+002,7.561327e+001
5.250620e+002,7.467482e+001
5.269905e+002,7.997483e+001
5.289189e+002,7.950166e+001
5.308474e+002,7.575893e+001
5.327759e+002,7.453473e+001
5.347043e+002,7.746941e+001
5.366328e+002,7.587560e+001
5.385613e+002,7.498959e+001
5.404897e+002,7.808215e+001
5.424182e+002,8.091572e+001
5.443467e+002,8.063912e+001
5.462751e+002,7.715403e+001
5.482036e+002,7.134798e+001
5.501321e+002,7.105388e+001
5.520605e+002,7.263277e+001
5.539890e+002,7.156001e+001
5.559175e+002,6.966519e+001
5.578459e+002,7.188991e+001
5.597744e+002,6.701470e+001
5.617029e+002,6.844476e+001
5.636313e+002,7.069763e+001
5.655598e+002,7.102122e+001
5.674883e+002,6.929559e+001
5.694167e+002,6.693368e+001
5.713452e+002,6.279608e+001
5.732737e+002,6.470472e+001
5.752021e+002,6.677227e+001
5.771306e+002,6.877713e+001
5.790591e+002,7.292650e+001
5.809875e+002,7.893887e+001
5.829160e+002,7.191362e+001
5.848445e+002,7.112072e+001
5.867729e+002,7.205206e+001
5.887014e+002,7.220823e+001
5.906299e+002,6.974522e+001
5.925583e+002,6.251802e+001
5.944868e+002,6.668026e+001
5.964153e+002,7.317041e+001
5.983438e+002,7.522664e+001
6.002722e+002,7.420701e+001
6.022007e+002,7.347046e+001
6.041292e+002,7.177395e+001
6.060576e+002,6.911608e+001
6.079861e+002,7.577738e+001
6.099146e+002,8.323013e+001
6.118430e+002,8.164742e+001
6.137715e+002,7.057371e+001
6.157000e+002,6.508876e+001
6.176284e+002,7.912360e+001
6.195569e+002,7.311396e+001
6.214854e+002,7.010268e+001
6.234138e+002,7.278133e+001
6.253423e+002,7.407868e+001
6.272708e+002,7.756169e+001
6.291992e+002,7.647239e+001
6.311277e+002,7.606484e+001
6.330562e+002,7.582595e+001
6.349846e+002,7.527425e+001
6.369131e+002,7.477454e+001
6.388416e+002,7.525530e+001
6.407700e+002,7.494904e+001
6.426985e+002,7.294366e+001
6.446270e+002,7.081841e+001
6.465554e+002,7.038964e+001
6.484839e+002,7.356405e+001
6.504124e+002,7.917704e+001
6.523408e+002,6.163085e+001
6.542693e+002,7.056626e+001
6.561978e+002,7.063567e+001
6.581262e+002,6.877625e+001
6.600547e+002,7.487948e+001
6.619832e+002,7.756261e+001
6.639116e+002,7.334157e+001
6.658401e+002,7.244273e+001
6.677686e+002,7.229099e+001
6.696970e+002,6.901595e+001
6.716255e+002,6.588442e+001
6.735540e+002,7.096235e+001
6.754824e+002,8.069019e+001
6.774109e+002,7.502299e+001
6.793394e+002,6.713902e+001
6.812678e+002,7.286054e+001
6.831963e+002,8.017046e+001
6.851248e+002,7.192390e+001
6.870532e+002,8.018872e+001
6.889817e+002,7.314312e+001
6.909102e+002,7.799988e+001
6.928386e+002,7.587200e+001
6.947671e+002,7.060057e+001
6.966956e+002,7.406579e+001
6.986240e+002,7.626684e+001
7.005525e+002,8.203468e+001
7.024810e+002,8.793628e+001
7.044094e+002,8.531997e+001
7.063379e+002,7.751852e+001
7.082664e+002,7.452974e+001
7.101948e+002,8.342178e+001
7.121233e+002,9.428068e+001
7.140518e+002,9.754513e+001
7.159802e+002,9.822638e+001
7.179087e+002,9.752091e+001
7.198372e+002,1.023159e+002
7.217656e+002,1.137085e+002
7.236941e+002,1.001735e+002
7.256226e+002,1.028044e+002
7.275510e+002,1.021271e+002
7.294795e+002,9.925462e+001
7.314080e+002,9.414464e+001
7.333364e+002,8.808723e+001
7.352649e+002,8.849975e+001
7.371934e+002,9.495574e+001
7.391218e+002,9.616103e+001
7.410503e+002,9.269407e+001
7.429788e+002,9.328224e+001
7.449072e+002,1.001648e+002
7.468357e+002,1.043433e+002
7.487642e+002,9.548631e+001
7.506926e+002,9.918542e+001
7.526211e+002,1.010448e+002
7.545496e+002,1.022618e+002
7.564780e+002,1.030893e+002
7.584065e+002,1.033073e+002
7.603350e+002,1.061633e+002
7.622634e+002,1.076359e+002
7.641919e+002,1.096280e+002
7.661204e+002,1.049594e+002
7.680488e+002,1.035328e+002
7.699773e+002,1.049122e+002
7.719058e+002,9.876427e+001
7.738342e+002,1.024642e+002
7.757627e+002,1.082667e+002
7.776912e+002,1.025538e+002
7.796196e+002,9.919093e+001
7.815481e+002,1.021554e+002
7.834766e+002,1.066664e+002
7.854050e+002,1.092343e+002
7.873335e+002,1.084783e+002
7.892620e+002,1.104253e+002
7.911904e+002,1.064299e+002
7.931189e+002,1.066593e+002
7.950474e+002,1.130872e+002
7.969758e+002,1.156262e+002
7.989043e+002,1.077814e+002
8.008328e+002,1.182787e+002
8.027612e+002,1.173470e+002
8.046897e+002,1.167134e+002
8.066182e+002,1.163408e+002
8.085466e+002,1.141215e+002
8.104751e+002,1.138577e+002
8.124036e+002,1.201659e+002
8.143320e+002,1.205718e+002
8.162605e+002,1.220821e+002
8.181890e+002,1.275684e+002
8.201174e+002,1.344895e+002
8.220459e+002,1.338749e+002
8.239744e+002,1.204373e+002
8.259028e+002,1.278545e+002
8.278313e+002,1.347881e+002
8.297598e+002,1.346860e+002
8.316882e+002,1.330801e+002
8.336167e+002,1.341950e+002
8.355452e+002,1.377578e+002
8.374736e+002,1.410150e+002
8.394021e+002,1.422158e+002
8.413306e+002,1.414001e+002
8.432590e+002,1.445982e+002
8.451875e+002,1.479301e+002
8.471160e+002,1.444774e+002
8.490444e+002,1.365851e+002
8.509729e+002,1.412342e+002
8.529014e+002,1.548009e+002
8.548298e+002,1.324874e+002
8.567583e+002,1.445885e+002
8.586868e+002,1.573467e+002
8.606152e+002,1.536859e+002
8.625437e+002,1.501794e+002
8.644722e+002,1.466493e+002
8.664006e+002,1.557966e+002
8.683291e+002,1.597905e+002
8.702576e+002,1.606503e+002
8.721860e+002,1.600070e+002
8.741145e+002,1.593918e+002
8.760430e+002,1.574008e+002
8.779714e+002,1.490641e+002
8.798999e+002,1.503210e+002
8.818284e+002,1.622598e+002
8.837568e+002,1.554791e+002
8.856853e+002,1.582639e+002
8.876138e+002,1.693717e+002
8.895422e+002,1.658262e+002
8.914707e+002,1.573628e+002
8.933992e+002,1.590613e+002
8.953276e+002,1.629241e+002
8.972561e+002,1.537275e+002
8.991846e+002,1.491036e+002
9.011130e+002,1.522454e+002
9.030415e+002,1.522308e+002
9.049700e+002,1.456757e+002
9.068984e+002,1.407712e+002
9.088269e+002,1.379636e+002
9.107554e+002,1.355024e+002
9.126838e+002,1.346764e+002
9.146123e+002,1.365193e+002
9.165408e+002,1.392638e+002
9.184692e+002,1.386359e+002
9.203977e+002,1.330794e+002
9.223262e+002,1.424462e+002
9.242546e+002,1.426543e+002
9.261831e+002,1.396153e+002
9.281116e+002,1.389900e+002
9.300400e+002,1.398385e+002
9.319685e+002,1.385014e+002
9.338970e+002,1.372633e+002
9.358254e+002,1.388832e+002
9.377539e+002,1.364903e+002
9.396824e+002,1.318700e+002
9.416108e+002,1.288561e+002
9.435393e+002,1.284423e+002
9.454678e+002,1.283626e+002
9.473962e+002,1.265623e+002
9.493247e+002,1.259929e+002
9.512532e+002,1.290497e+002
9.531816e+002,1.275639e+002
9.551101e+002,1.247197e+002
9.570386e+002,1.242089e+002
9.589670e+002,1.276850e+002
9.608955e+002,1.327934e+002
9.628240e+002,1.272867e+002
9.647524e+002,1.319290e+002
9.666809e+002,1.348806e+002
9.686094e+002,1.346933e+002
9.705378e+002,1.318974e+002
9.724663e+002,1.314944e+002
9.743948e+002,1.361489e+002
9.763232e+002,1.373094e+002
9.782517e+002,1.400445e+002
9.801802e+002,1.463189e+002
9.821086e+002,1.434255e+002
9.840371e+002,1.386925e+002
9.859656e+002,1.372902e+002
9.878940e+002,1.373527e+002
9.898225e+002,1.365592e+002
9.917510e+002,1.415067e+002
9.936794e+002,1.471453e+002
9.956079e+002,1.410113e+002
9.975364e+002,1.469222e+002
9.994648e+002,1.513853e+002
1.001393e+003,1.503347e+002
1.003322e+003,1.503505e+002
1.005250e+003,1.459908e+002
1.007179e+003,1.484308e+002
1.009107e+003,1.538871e+002
1.011036e+003,1.555690e+002
1.012964e+003,1.556639e+002
1.014893e+003,1.580411e+002
1.016821e+003,1.638646e+002
1.018750e+003,1.677626e+002
1.020678e+003,1.604648e+002
1.022606e+003,1.579101e+002
1.024535e+003,1.703596e+002
1.026463e+003,1.693259e+002
1.028392e+003,1.756002e+002
1.030320e+003,1.833635e+002
1.032249e+003,1.829654e+002
1.034177e+003,1.818838e+002
1.036106e+003,1.834422e+002
1.038034e+003,1.825179e+002
1.039963e+003,1.879627e+002
1.041891e+003,1.969998e+002
1.043820e+003,2.019844e+002
1.045748e+003,2.058194e+002
1.047677e+003,2.165485e+002
1.049605e+003,2.367220e+002
1.051533e+003,2.635483e+002
1.053462e+003,3.271008e+002
1.055390e+003,4.120648e+002
1.057319e+003,5.626208e+002
1.059247e+003,7.151209e+002
1.061176e+003,7.926566e+002
1.063104e+003,7.449407e+002
1.065033e+003,5.833808e+002
1.066961e+003,4.153087e+002
1.068890e+003,3.254845e+002
1.070818e+003,2.892495e+002
1.072747e+003,2.813700e+002
1.074675e+003,2.806776e+002
1.076604e+003,2.837336e+002
1.078532e+003,2.926050e+002
1.080460e+003,2.981477e+002
1.082389e+003,2.830833e+002
1.084317e+003,2.815472e+002
1.086246e+003,2.886991e+002
1.088174e+003,2.730816e+002
1.090103e+003,2.606391e+002
1.092031e+003,2.501149e+002
1.093960e+003,2.352843e+002
1.095888e+003,2.216823e+002
1.097817e+003,2.151024e+002
1.099745e+003,2.248226e+002
1.101674e+003,2.295452e+002
1.103602e+003,2.310521e+002
1.105531e+003,2.277570e+002
1.107459e+003,2.254218e+002
1.109387e+003,2.299474e+002
1.111316e+003,2.385655e+002
1.113244e+003,2.432335e+002
1.115173e+003,2.514989e+002
1.117101e+003,2.845694e+002
1.119030e+003,3.242757e+002
1.120958e+003,3.933250e+002
1.122887e+003,5.070666e+002
1.124815e+003,6.577933e+002
1.126744e+003,7.735825e+002
1.128672e+003,7.576647e+002
1.130601e+003,6.099481e+002
1.132529e+003,4.591537e+002
1.134458e+003,3.554277e+002
1.136386e+003,2.909727e+002
1.138314e+003,2.599083e+002
1.140243e+003,2.486502e+002
1.142171e+003,2.388849e+002
1.144100e+003,2.235459e+002
1.146028e+003,2.134196e+002
1.147957e+003,2.144814e+002
1.149885e+003,2.060727e+002
1.151814e+003,2.187701e+002
1.153742e+003,2.112679e+002
1.155671e+003,2.083925e+002
1.157599e+003,2.055550e+002
1.159528e+003,2.027320e+002
1.161456e+003,2.141278e+002
1.163385e+003,2.326951e+002
1.165313e+003,2.518486e+002
1.167241e+003,2.818890e+002
1.169170e+003,2.967495e+002
1.171098e+003,2.660030e+002
1.173027e+003,2.212078e+002
1.174955e+003,1.990649e+002
1.176884e+003,1.946613e+002
1.178812e+003,1.859680e+002
1.180741e+003,1.859849e+002
1.182669e+003,1.783378e+002
1.184598e+003,1.801785e+002
1.186526e+003,1.814311e+002
1.188455e+003,1.803525e+002
1.190383e+003,1.773840e+002
1.192312e+003,1.741208e+002
1.194240e+003,1.726096e+002
1.196168e+003,1.734955e+002
1.198097e+003,1.750110e+002
1.200025e+003,1.779515e+002
1.201954e+003,1.764849e+002
1.203882e+003,1.797536e+002
1.205811e+003,1.819023e+002
1.207739e+003,1.762513e+002
1.209668e+003,1.738604e+002
1.211596e+003,1.767209e+002
1.213525e+003,1.775796e+002
1.215453e+003,1.848786e+002
1.217382e+003,1.824516e+002
1.219310e+003,1.900736e+002
1.221239e+003,1.845564e+002
1.223167e+003,1.790185e+002
1.225095e+003,1.778658e+002
1.227024e+003,1.748270e+002
1.228952e+003,1.777777e+002
1.230881e+003,1.895746e+002
1.232809e+003,1.870518e+002
1.234738e+003,1.813464e+002
1.236666e+003,1.877367e+002
1.238595e+003,1.961264e+002
1.240523e+003,1.963177e+002
1.242452e+003,1.893323e+002
1.244380e+003,1.933112e+002
1.246309e+003,2.033658e+002
1.248237e+003,2.064057e+002
1.250166e+003,2.067150e+002
1.252094e+003,2.081034e+002
1.254022e+003,2.152110e+002
1.255951e+003,2.177069e+002
1.257879e+003,2.167417e+002
1.259808e+003,2.200176e+002
1.261736e+003,2.331416e+002
1.263665e+003,2.442253e+002
1.265593e+003,2.467287e+002
1.267522e+003,2.485854e+002
1.269450e+003,2.555337e+002
1.271379e+003,2.633366e+002
1.273307e+003,2.710067e+002
1.275236e+003,2.726468e+002
1.277164e+003,2.737357e+002
1.279093e+003,2.815875e+002
1.281021e+003,2.983218e+002
1.282949e+003,3.231500e+002
1.284878e+003,3.554035e+002
1.286806e+003,4.133098e+002
1.288735e+003,5.602325e+002
1.290663e+003,8.853091e+002
1.292592e+003,1.334587e+003
1.294520e+003,1.393636e+003
1.296449e+003,1.075122e+003
1.298377e+003,7.287604e+002
1.300306e+003,5.515829e+002
1.302234e+003,5.023352e+002
1.304163e+003,4.744908e+002
1.306091e+003,4.394250e+002
1.308020e+003,4.181341e+002
1.309948e+003,4.040481e+002
1.311876e+003,3.826260e+002
1.313805e+003,3.501350e+002
1.315733e+003,3.389542e+002
1.317662e+003,3.278691e+002
1.319590e+003,3.215473e+002
1.321519e+003,3.120882e+002
1.323447e+003,2.971088e+002
1.325376e+003,2.874115e+002
1.327304e+003,2.782191e+002
1.329233e+003,2.702081e+002
1.331161e+003,2.619022e+002
1.333090e+003,2.544336e+002
1.335018e+003,2.548792e+002
1.336947e+003,2.565101e+002
1.338875e+003,2.628907e+002
1.340803e+003,2.630412e+002
1.342732e+003,2.596198e+002
1.344660e+003,2.637382e+002
1.346589e+003,2.657533e+002
1.348517e+003,2.574166e+002
1.350446e+003,2.635320e+002
1.352374e+003,2.700520e+002
1.354303e+003,2.769164e+002
1.356231e+003,2.779802e+002
1.358160e+003,2.781199e+002
1.360088e+003,2.853709e+002
1.362017e+003,2.998208e+002
1.363945e+003,3.167477e+002
1.365874e+003,3.328789e+002
1.367802e+003,3.426068e+002
1.369730e+003,3.344862e+002
1.371659e+003,3.293773e+002
1.373587e+003,3.049947e+002
1.375516e+003,2.892985e+002
1.377444e+003,2.789298e+002
1.379373e+003,2.772348e+002
1.381301e+003,2.813246e+002
1.383230e+003,2.798358e+002
1.385158e+003,2.744823e+002
1.387087e+003,2.767673e+002
1.389015e+003,2.785550e+002
1.390944e+003,2.749394e+002
1.392872e+003,2.778503e+002
1.394801e+003,2.892428e+002
1.396729e+003,2.936800e+002
1.398657e+003,2.908770e+002
1.400586e+003,2.927207e+002
1.402514e+003,3.019872e+002
1.404443e+003,3.175087e+002
1.406371e+003,3.326840e+002
1.408300e+003,3.478504e+002
1.410228e+003,3.877036e+002
1.412157e+003,4.683031e+002
1.414085e+003,5.968501e+002
1.416014e+003,6.524164e+002
1.417942e+003,6.018892e+002
1.419871e+003,5.487119e+002
1.421799e+003,5.314313e+002
1.423728e+003,5.331564e+002
1.425656e+003,5.574835e+002
1.427584e+003,6.227264e+002
1.429513e+003,7.271300e+002
1.431441e+003,8.544926e+002
1.433370e+003,9.992678e+002
1.435298e+003,1.160051e+003
1.437227e+003,1.338113e+003
1.439155e+003,1.355967e+003
1.441084e+003,1.233089e+003
1.443012e+003,1.093860e+003
1.444941e+003,9.749445e+002
1.446869e+003,9.089518e+002
1.448798e+003,8.903036e+002
1.450726e+003,8.911490e+002
1.452655e+003,9.014473e+002
1.454583e+003,9.124842e+002
1.456511e+003,9.157443e+002
1.458440e+003,9.187157e+002
1.460368e+003,9.156844e+002
1.462297e+003,8.819585e+002
1.464225e+003,8.598267e+002
1.466154e+003,8.011718e+002
1.468082e+003,7.336259e+002
1.470011e+003,6.656269e+002
1.471939e+003,6.057715e+002
1.473868e+003,5.588459e+002
1.475796e+003,5.227315e+002
1.477725e+003,5.059810e+002
1.479653e+003,4.811148e+002
1.481582e+003,4.641544e+002
1.483510e+003,4.596037e+002
1.485438e+003,4.528927e+002
1.487367e+003,4.472411e+002
1.489295e+003,4.478462e+002
1.491224e+003,4.440327e+002
1.493152e+003,4.322295e+002
1.495081e+003,4.347837e+002
1.497009e+003,4.415117e+002
1.498938e+003,4.378080e+002
1.500866e+003,4.446417e+002
1.502795e+003,4.418282e+002
1.504723e+003,4.369978e+002
1.506652e+003,4.398760e+002
1.508580e+003,4.499394e+002
1.510509e+003,4.506115e+002
1.512437e+003,4.466887e+002
1.514365e+003,4.406822e+002
1.516294e+003,4.377238e+002
1.518222e+003,4.502471e+002
1.520151e+003,4.677808e+002
1.522079e+003,4.641861e+002
1.524008e+003,4.497596e+002
1.525936e+003,4.583781e+002
1.527865e+003,4.678549e+002
1.529793e+003,4.798138e+002
1.531722e+003,4.708865e+002
1.533650e+003,4.725467e+002
1.535579e+003,4.748465e+002
1.537507e+003,4.837469e+002
1.539436e+003,4.902589e+002
1.541364e+003,4.990366e+002
1.543292e+003,5.066780e+002
1.545221e+003,5.046141e+002
1.547149e+003,4.957963e+002
1.549078e+003,4.914846e+002
1.551006e+003,4.991382e+002
1.552935e+003,5.149206e+002
1.554863e+003,5.119698e+002
1.556792e+003,5.120319e+002
1.558720e+003,5.092597e+002
1.560649e+003,5.291506e+002
1.562577e+003,5.340442e+002
1.564506e+003,5.218366e+002
1.566434e+003,5.173694e+002
1.568363e+003,5.232000e+002
1.570291e+003,5.414875e+002
1.572219e+003,5.596872e+002
1.574148e+003,5.618918e+002
1.576076e+003,5.549937e+002
1.578005e+003,5.533502e+002
1.579933e+003,5.527745e+002
1.581862e+003,5.552924e+002
1.583790e+003,5.708519e+002
1.585719e+003,5.749247e+002
1.587647e+003,5.896011e+002
1.589576e+003,5.836249e+002
1.591504e+003,5.831714e+002
1.593433e+003,5.721783e+002
1.595361e+003,5.847216e+002
1.597290e+003,6.016036e+002
1.599218e+003,6.177035e+002
1.601146e+003,6.292902e+002
1.603075e+003,6.250267e+002
1.605003e+003,6.229181e+002
1.606932e+003,6.299008e+002
1.608860e+003,6.289995e+002
1.610789e+003,6.408804e+002
1.612717e+003,6.353417e+002
1.614646e+003,6.225962e+002
1.616574e+003,6.383138e+002
1.618503e+003,6.541148e+002
1.620431e+003,6.498170e+002
1.622360e+003,6.445065e+002
1.624288e+003,6.485320e+002
1.626217e+003,6.578996e+002
1.628145e+003,6.733818e+002
1.630073e+003,6.902890e+002
1.632002e+003,6.954608e+002
1.633930e+003,6.889521e+002
1.635859e+003,6.875675e+002
1.637787e+003,6.999513e+002
1.639716e+003,7.097863e+002
1.641644e+003,7.036925e+002
1.643573e+003,7.185314e+002
1.645501e+003,7.306678e+002
1.647430e+003,7.209597e+002
1.649358e+003,7.398510e+002
1.651287e+003,7.516823e+002
1.653215e+003,7.485107e+002
1.655144e+003,7.468297e+002
1.657072e+003,7.563027e+002
1.659000e+003,7.626871e+002
1.660929e+003,7.700655e+002
1.662857e+003,7.912632e+002
1.664786e+003,8.031199e+002
1.666714e+003,7.971147e+002
1.668643e+003,8.074462e+002
1.670571e+003,8.183877e+002
1.672500e+003,8.212516e+002
1.674428e+003,8.284635e+002
1.676357e+003,8.197576e+002
1.678285e+003,8.323238e+002
1.680214e+003,8.424316e+002
1.682142e+003,8.607891e+002
1.684071e+003,8.677411e+002
1.685999e+003,8.741022e+002
1.687927e+003,8.844396e+002
1.689856e+003,8.874457e+002
1.691784e+003,8.888375e+002
1.693713e+003,9.011620e+002
1.695641e+003,9.157034e+002
1.697570e+003,9.267759e+002
1.699498e+003,9.463619e+002
1.701427e+003,9.544145e+002
1.703355e+003,9.478912e+002
1.705284e+003,9.458735e+002
1.707212e+003,9.531597e+002
1.709141e+003,9.684427e+002
1.711069e+003,9.901835e+002
1.712998e+003,9.820313e+002
1.714926e+003,9.922669e+002
1.716854e+003,1.007662e+003
1.718783e+003,1.026453e+003
1.720711e+003,1.044173e+003
1.722640e+003,1.052138e+003
1.724568e+003,1.056713e+003
1.726497e+003,1.056750e+003
1.728425e+003,1.067315e+003
1.730354e+003,1.089361e+003
1.732282e+003,1.086164e+003
1.734211e+003,1.096260e+003
1.736139e+003,1.111288e+003
1.738068e+003,1.129853e+003
1.739996e+003,1.141915e+003
1.741925e+003,1.160236e+003
1.743853e+003,1.168981e+003
1.745781e+003,1.175332e+003
1.747710e+003,1.192852e+003
1.749638e+003,1.214154e+003
1.751567e+003,1.224271e+003
1.753495e+003,1.232237e+003
1.755424e+003,1.247036e+003
1.757352e+003,1.241513e+003
1.759281e+003,1.243621e+003
1.761209e+003,1.273475e+003
1.763138e+003,1.287815e+003
1.765066e+003,1.280046e+003
1.766995e+003,1.291064e+003
1.768923e+003,1.311075e+003
1.770852e+003,1.321376e+003
1.772780e+003,1.335752e+003
1.774708e+003,1.349545e+003
1.776637e+003,1.371381e+003
1.778565e+003,1.410695e+003
1.780494e+003,1.417838e+003
1.782422e+003,1.405179e+003
1.784351e+003,1.436745e+003
1.786279e+003,1.422877e+003
1.788208e+003,1.451858e+003
1.790136e+003,1.440425e+003
1.792065e+003,1.463732e+003
1.793993e+003,1.480154e+003
1.795922e+003,1.495106e+003
1.797850e+003,1.526136e+003
1.799779e+003,1.548000e+003
1.801707e+003,1.549145e+003
1.803635e+003,1.542581e+003
1.805564e+003,1.555917e+003
1.807492e+003,1.596280e+003
1.809421e+003,1.617150e+003
1.811349e+003,1.614337e+003
1.813278e+003,1.631172e+003
1.815206e+003,1.652805e+003
1.817135e+003,1.688774e+003
1.819063e+003,1.668787e+003
1.820992e+003,1.698183e+003
1.822920e+003,1.692841e+003
1.824849e+003,1.719541e+003
1.826777e+003,1.725303e+003
1.828706e+003,1.745739e+003
1.830634e+003,1.772024e+003
1.832563e+003,1.787552e+003
1.834491e+003,1.806938e+003
1.836419e+003,1.828734e+003
1.838348e+003,1.837461e+003
1.840276e+003,1.849806e+003
1.842205e+003,1.879569e+003
1.844133e+003,1.892111e+003
1.846062e+003,1.885075e+003
1.847990e+003,1.894003e+003
1.849919e+003,1.916443e+003
1.851847e+003,1.927210e+003
1.853776e+003,1.944936e+003
1.855704e+003,1.989911e+003
1.857633e+003,2.005311e+003
1.859561e+003,2.008602e+003
1.861490e+003,2.028646e+003
1.863418e+003,2.051861e+003
1.865346e+003,2.073435e+003
1.867275e+003,2.102351e+003
1.869203e+003,2.118457e+003
1.871132e+003,2.120834e+003
1.873060e+003,2.124417e+003
1.874989e+003,2.151418e+003
1.876917e+003,2.133274e+003
1.878846e+003,2.180782e+003
1.880774e+003,2.178881e+003
1.882703e+003,2.206694e+003
1.884631e+003,2.234143e+003
1.886560e+003,2.243135e+003
1.888488e+003,2.256563e+003
1.890417e+003,2.274300e+003
1.892345e+003,2.291390e+003
1.894273e+003,2.317639e+003
1.896202e+003,2.346094e+003
1.898130e+003,2.347885e+003
1.900059e+003,2.355987e+003
1.901987e+003,2.395740e+003
1.903916e+003,2.415483e+003
1.905844e+003,2.423684e+003
1.907773e+003,2.440124e+003
1.909701e+003,2.458406e+003
1.911630e+003,2.479521e+003
1.913558e+003,2.477624e+003
1.915487e+003,2.492104e+003
1.917415e+003,2.537239e+003
1.919344e+003,2.572544e+003
1.921272e+003,2.581034e+003
1.923200e+003,2.601789e+003
1.925129e+003,2.644762e+003
1.927057e+003,2.650279e+003
1.928986e+003,2.653706e+003
1.930914e+003,2.696033e+003
1.932843e+003,2.712377e+003
1.934771e+003,2.708165e+003
1.936700e+003,2.741445e+003
1.938628e+003,2.784542e+003
1.940557e+003,2.811965e+003
1.942485e+003,2.814952e+003
1.944414e+003,2.818105e+003
1.946342e+003,2.827420e+003
1.948271e+003,2.853653e+003
1.950199e+003,2.893067e+003
1.952127e+003,2.912883e+003
1.954056e+003,2.931564e+003
1.955984e+003,2.950169e+003
1.957913e+003,2.994102e+003
1.959841e+003,3.024463e+003
1.961770e+003,3.035318e+003
1.963698e+003,3.079393e+003
1.965627e+003,3.102561e+003
1.967555e+003,3.127182e+003
1.969484e+003,3.141004e+003
1.971412e+003,3.174059e+003
1.973341e+003,3.197323e+003
1.975269e+003,3.211654e+003
1.977198e+003,3.235937e+003
1.979126e+003,3.271386e+003
1.981054e+003,3.304137e+003
1.982983e+003,3.337074e+003
1.984911e+003,3.370199e+003
1.986840e+003,3.359451e+003
1.988768e+003,3.399393e+003
1.990697e+003,3.408830e+003
1.992625e+003,3.458498e+003
1.994554e+003,3.486817e+003
1.996482e+003,3.532189e+003
1.998411e+003,3.542131e+003
2.000339e+003,3.572469e+003
2.002268e+003,3.620948e+003
2.004196e+003,3.644729e+003
2.006125e+003,3.658607e+003
2.008053e+003,3.703349e+003
2.009981e+003,3.738974e+003
2.011910e+003,3.702517e+003
2.013838e+003,3.747063e+003
2.015767e+003,3.838947e+003
2.017695e+003,3.878188e+003
2.019624e+003,3.880859e+003
2.021552e+003,3.888776e+003
2.023481e+003,3.898596e+003
2.025409e+003,3.960857e+003
2.027338e+003,4.033083e+003
2.029266e+003,4.068029e+003
2.031195e+003,4.094749e+003
2.033123e+003,4.131979e+003
2.035052e+003,4.147993e+003
2.036980e+003,4.144127e+003
2.038908e+003,4.193370e+003
2.040837e+003,4.239096e+003
2.042765e+003,4.261423e+003
2.044694e+003,4.295561e+003
2.046622e+003,4.314347e+003
2.048551e+003,4.365948e+003
2.050479e+003,4.409266e+003
2.052408e+003,4.425123e+003
2.054336e+003,4.450880e+003
2.056265e+003,4.508135e+003
2.058193e+003,4.569336e+003
2.060122e+003,4.598164e+003
2.062050e+003,4.624286e+003
2.063979e+003,4.650314e+003
2.065907e+003,4.637024e+003
2.067835e+003,4.656696e+003
2.069764e+003,4.724995e+003
2.071692e+003,4.752587e+003
2.073621e+003,4.777805e+003
2.075549e+003,4.775333e+003
2.077478e+003,4.861192e+003
2.079406e+003,4.848660e+003
2.081335e+003,4.906073e+003
2.083263e+003,4.919547e+003
2.085192e+003,4.941679e+003
2.087120e+003,4.991437e+003
2.089049e+003,4.990993e+003
2.090977e+003,4.992836e+003
2.092906e+003,5.041046e+003
2.094834e+003,5.019776e+003
2.096762e+003,5.107542e+003
2.098691e+003,5.115326e+003
2.100619e+003,5.159854e+003
2.102548e+003,5.186191e+003
2.104476e+003,5.180699e+003
2.106405e+003,5.200591e+003
2.108333e+003,5.242479e+003
2.110262e+003,5.239754e+003
2.112190e+003,5.265660e+003
2.114119e+003,5.314176e+003
2.116047e+003,5.329610e+003
2.117976e+003,5.348927e+003
2.119904e+003,5.344640e+003
2.121833e+003,5.372603e+003
2.123761e+003,5.390444e+003
2.125689e+003,5.417703e+003
2.127618e+003,5.407989e+003
2.129546e+003,5.423637e+003
2.131475e+003,5.456554e+003
2.133403e+003,5.446420e+003
2.135332e+003,5.492480e+003
2.137260e+003,5.512535e+003
2.139189e+003,5.497632e+003
2.141117e+003,5.508544e+003
2.143046e+003,5.539338e+003
2.144974e+003,5.555417e+003
2.146903e+003,5.533723e+003
2.148831e+003,5.557038e+003
2.150760e+003,5.531343e+003
2.152688e+003,5.571155e+003
2.154616e+003,5.582753e+003
2.156545e+003,5.561335e+003
2.158473e+003,5.559703e+003
2.160402e+003,5.584157e+003
2.162330e+003,5.592995e+003
2.164259e+003,5.589159e+003
2.166187e+003,5.569444e+003
2.168116e+003,5.555395e+003
2.170044e+003,5.563376e+003
2.171973e+003,5.575601e+003
2.173901e+003,5.589796e+003
2.175830e+003,5.586559e+003
2.177758e+003,5.605923e+003
2.179687e+003,5.597563e+003
2.181615e+003,5.548932e+003
2.183543e+003,5.553324e+003
2.185472e+003,5.528560e+003
2.187400e+003,5.503406e+003
2.189329e+003,5.511295e+003
2.191257e+003,5.503364e+003
2.193186e+003,5.480133e+003
2.195114e+003,5.485312e+003
2.197043e+003,5.472751e+003
2.198971e+003,5.422307e+003
2.200900e+003,5.411402e+003
2.202828e+003,5.442588e+003
2.204757e+003,5.375284e+003
2.206685e+003,5.368537e+003
2.208614e+003,5.381148e+003
2.210542e+003,5.340867e+003
2.212470e+003,5.314939e+003
2.214399e+003,5.280041e+003
2.216327e+003,5.267182e+003
2.218256e+003,5.261445e+003
2.220184e+003,5.238956e+003
2.222113e+003,5.234204e+003
2.224041e+003,5.228542e+003
2.225970e+003,5.187794e+003
2.227898e+003,5.187116e+003
2.229827e+003,5.163568e+003
2.231755e+003,5.129963e+003
2.233684e+003,5.087804e+003
2.235612e+003,5.084158e+003
2.237541e+003,5.065250e+003
2.239469e+003,5.011942e+003
2.241397e+003,5.025226e+003
2.243326e+003,5.032224e+003
2.245254e+003,5.009142e+003
2.247183e+003,4.974881e+003
2.249111e+003,4.926490e+003
2.251040e+003,4.891055e+003
2.252968e+003,4.860405e+003
2.254897e+003,4.852633e+003
2.256825e+003,4.828798e+003
2.258754e+003,4.806258e+003
2.260682e+003,4.798762e+003
2.262611e+003,4.755693e+003
2.264539e+003,4.691893e+003
2.266468e+003,4.686901e+003
2.268396e+003,4.651707e+003
2.270324e+003,4.611584e+003
2.272253e+003,4.599232e+003
2.274181e+003,4.562577e+003
2.276110e+003,4.550641e+003
2.278038e+003,4.561121e+003
2.279967e+003,4.474170e+003
2.281895e+003,4.481146e+003
2.283824e+003,4.441259e+003
2.285752e+003,4.404220e+003
2.287681e+003,4.356130e+003
2.289609e+003,4.374065e+003
2.291538e+003,4.360252e+003
2.293466e+003,4.320644e+003
2.295395e+003,4.276456e+003
2.297323e+003,4.260454e+003
2.299251e+003,4.231494e+003
2.301180e+003,4.190886e+003
2.303108e+003,4.163285e+003
2.305037e+003,4.119698e+003
2.306965e+003,4.117751e+003
2.308894e+003,4.116093e+003
2.310822e+003,4.043225e+003
2.312751e+003,4.044093e+003
2.314679e+003,4.045651e+003
2.316608e+003,3.971515e+003
2.318536e+003,3.963178e+003
2.320465e+003,3.939961e+003
2.322393e+003,3.924977e+003
2.324322e+003,3.876893e+003
2.326250e+003,3.862555e+003
2.328178e+003,3.859544e+003
2.330107e+003,3.811872e+003
2.332035e+003,3.777680e+003
2.333964e+003,3.734510e+003
2.335892e+003,3.725275e+003
2.337821e+003,3.702328e+003
2.339749e+003,3.670844e+003
2.341678e+003,3.669363e+003
2.343606e+003,3.660666e+003
2.345535e+003,3.649828e+003
2.347463e+003,3.636951e+003
2.349392e+003,3.600659e+003
2.351320e+003,3.564099e+003
2.353249e+003,3.568708e+003
2.355177e+003,3.575842e+003
2.357105e+003,3.546579e+003
2.359034e+003,3.527529e+003
2.360962e+003,3.505570e+003
2.362891e+003,3.455434e+003
2.364819e+003,3.439865e+003
2.366748e+003,3.413161e+003
2.368676e+003,3.389325e+003
2.370605e+003,3.378707e+003
2.372533e+003,3.356764e+003
2.374462e+003,3.340142e+003
2.376390e+003,3.343756e+003
2.378319e+003,3.333632e+003
2.380247e+003,3.304145e+003
2.382176e+003,3.282534e+003
2.384104e+003,3.266251e+003
2.386032e+003,3.266893e+003
2.387961e+003,3.211885e+003
2.389889e+003,3.193890e+003
2.391818e+003,3.177649e+003
2.393746e+003,3.154673e+003
2.395675e+003,3.166609e+003
2.397603e+003,3.173031e+003
2.399532e+003,3.147787e+003
2.401460e+003,3.114370e+003
2.403389e+003,3.094820e+003
2.405317e+003,3.093367e+003
2.407246e+003,3.091332e+003
2.409174e+003,3.062891e+003
2.411103e+003,3.063639e+003
2.413031e+003,3.039545e+003
2.414959e+003,3.039379e+003
2.416888e+003,2.986590e+003
2.418816e+003,3.027005e+003
2.420745e+003,3.029301e+003
2.422673e+003,2.971960e+003
2.424602e+003,2.967157e+003
2.426530e+003,2.954707e+003
2.428459e+003,2.930483e+003
2.430387e+003,2.926844e+003
2.432316e+003,2.927937e+003
2.434244e+003,2.906906e+003
2.436173e+003,2.889872e+003
2.438101e+003,2.883106e+003
2.440030e+003,2.865071e+003
2.441958e+003,2.859850e+003
2.443886e+003,2.834510e+003
2.445815e+003,2.823657e+003
2.447743e+003,2.838264e+003
2.449672e+003,2.825235e+003
2.451600e+003,2.818744e+003
2.453529e+003,2.802156e+003
2.455457e+003,2.775363e+003
2.457386e+003,2.783622e+003
2.459314e+003,2.763238e+003
2.461243e+003,2.754504e+003
2.463171e+003,2.734674e+003
2.465100e+003,2.742745e+003
2.467028e+003,2.713319e+003
2.468957e+003,2.680180e+003
2.470885e+003,2.703038e+003
2.472813e+003,2.689380e+003
2.474742e+003,2.672537e+003
2.476670e+003,2.663389e+003
2.478599e+003,2.659990e+003
2.480527e+003,2.647677e+003
2.482456e+003,2.644392e+003
2.484384e+003,2.645548e+003
2.486313e+003,2.622165e+003
2.488241e+003,2.608857e+003
2.490170e+003,2.616398e+003
2.492098e+003,2.627662e+003
2.494027e+003,2.618819e+003
2.495955e+003,2.595168e+003
2.497884e+003,2.571141e+003
2.499812e+003,2.557068e+003
2.501740e+003,2.546556e+003
2.503669e+003,2.537320e+003
2.505597e+003,2.532050e+003
2.507526e+003,2.531420e+003
2.509454e+003,2.518968e+003
2.511383e+003,2.516285e+003
2.513311e+003,2.510994e+003
2.515240e+003,2.490590e+003
2.517168e+003,2.493784e+003
2.519097e+003,2.468329e+003
2.521025e+003,2.442260e+003
2.522954e+003,2.447908e+003
2.524882e+003,2.432700e+003
2.526811e+003,2.404738e+003
2.528739e+003,2.418456e+003
2.530667e+003,2.430215e+003
2.532596e+003,2.405808e+003
2.534524e+003,2.384332e+003
2.536453e+003,2.388614e+003
2.538381e+003,2.373308e+003
2.540310e+003,2.367585e+003
2.542238e+003,2.381449e+003
2.544167e+003,2.376813e+003
2.546095e+003,2.373315e+003
2.548024e+003,2.347533e+003
2.549952e+003,2.334541e+003
2.551881e+003,2.336332e+003
2.553809e+003,2.330041e+003
2.555738e+003,2.321190e+003
2.557666e+003,2.315614e+003
2.559594e+003,2.304575e+003
2.561523e+003,2.288337e+003
2.563451e+003,2.303116e+003
2.565380e+003,2.294527e+003
2.567308e+003,2.301757e+003
2.569237e+003,2.279626e+003
2.571165e+003,2.265217e+003
2.573094e+003,2.273157e+003
2.575022e+003,2.284417e+003
2.576951e+003,2.278750e+003
2.578879e+003,2.262763e+003
2.580808e+003,2.258907e+003
2.582736e+003,2.246696e+003
2.584665e+003,2.244717e+003
2.586593e+003,2.257673e+003
2.588521e+003,2.264574e+003
2.590450e+003,2.221821e+003
2.592378e+003,2.222003e+003
2.594307e+003,2.213188e+003
2.596235e+003,2.209369e+003
2.598164e+003,2.202775e+003
2.600092e+003,2.204187e+003
2.602021e+003,2.199344e+003
2.603949e+003,2.175953e+003
2.605878e+003,2.171604e+003
2.607806e+003,2.183006e+003
2.609735e+003,2.177930e+003
2.611663e+003,2.173211e+003
2.613592e+003,2.148564e+003
2.615520e+003,2.141095e+003
2.617448e+003,2.138355e+003
2.619377e+003,2.126276e+003
2.621305e+003,2.109425e+003
2.623234e+003,2.108244e+003
2.625162e+003,2.107334e+003
2.627091e+003,2.104299e+003
2.629019e+003,2.104581e+003
2.630948e+003,2.103502e+003
2.632876e+003,2.086104e+003
2.634805e+003,2.072047e+003
2.636733e+003,2.083124e+003
2.638662e+003,2.055415e+003
2.640590e+003,2.066226e+003
2.642519e+003,2.100979e+003
2.644447e+003,2.088678e+003
2.646375e+003,2.102867e+003
2.648304e+003,2.092029e+003
2.650232e+003,2.080509e+003
2.652161e+003,2.084711e+003
2.654089e+003,2.069798e+003
2.656018e+003,2.051163e+003
2.657946e+003,2.049722e+003
2.659875e+003,2.036250e+003
2.661803e+003,2.015617e+003
2.663732e+003,2.041255e+003
2.665660e+003,2.004141e+003
2.667589e+003,2.028622e+003
2.669517e+003,2.012656e+003
2.671446e+003,1.996379e+003
2.673374e+003,2.013050e+003
2.675302e+003,2.016600e+003
2.677231e+003,2.016863e+003
2.679159e+003,2.015847e+003
2.681088e+003,2.000848e+003
2.683016e+003,2.012093e+003
2.684945e+003,2.022956e+003
2.686873e+003,2.009038e+003
2.688802e+003,2.021513e+003
2.690730e+003,2.038676e+003
2.692659e+003,2.040259e+003
2.694587e+003,2.025741e+003
2.696516e+003,2.018532e+003
2.698444e+003,2.024284e+003
2.700373e+003,2.031167e+003
2.702301e+003,2.063569e+003
2.704229e+003,2.100755e+003
2.706158e+003,2.120301e+003
2.708086e+003,2.149395e+003
2.710015e+003,2.136254e+003
2.711943e+003,2.170451e+003
2.713872e+003,2.175963e+003
2.715800e+003,2.219853e+003
2.717729e+003,2.215308e+003
2.719657e+003,2.230157e+003
2.721586e+003,2.247413e+003
2.723514e+003,2.226614e+003
2.725443e+003,2.192220e+003
2.727371e+003,2.160426e+003
2.729300e+003,2.116814e+003
2.731228e+003,2.074109e+003
2.733156e+003,2.045630e+003
2.735085e+003,1.997721e+003
2.737013e+003,1.962493e+003
2.738942e+003,1.940480e+003
2.740870e+003,1.937330e+003
2.742799e+003,1.898345e+003
2.744727e+003,1.885454e+003
2.746656e+003,1.874279e+003
2.748584e+003,1.864889e+003
2.750513e+003,1.854523e+003
2.752441e+003,1.845304e+003
2.754370e+003,1.838557e+003
2.756298e+003,1.838931e+003
2.758227e+003,1.835349e+003
2.760155e+003,1.834068e+003
2.762083e+003,1.814478e+003
2.764012e+003,1.785421e+003
2.765940e+003,1.802474e+003
2.767869e+003,1.767241e+003
2.769797e+003,1.778883e+003
2.771726e+003,1.790795e+003
2.773654e+003,1.771003e+003
2.775583e+003,1.779636e+003
2.777511e+003,1.789262e+003
2.779440e+003,1.780849e+003
2.781368e+003,1.790241e+003
2.783297e+003,1.761931e+003
2.785225e+003,1.794134e+003
2.787154e+003,1.770382e+003
2.789082e+003,1.743828e+003
2.791010e+003,1.743116e+003
2.792939e+003,1.760029e+003
2.794867e+003,1.768862e+003
2.796796e+003,1.779431e+003
2.798724e+003,1.777270e+003
2.800653e+003,1.768833e+003
2.802581e+003,1.767961e+003
2.804510e+003,1.784942e+003
2.806438e+003,1.789180e+003
2.808367e+003,1.814233e+003
2.810295e+003,1.798605e+003
2.812224e+003,1.808756e+003
2.814152e+003,1.854499e+003
2.816081e+003,1.837748e+003
2.818009e+003,1.863738e+003
2.819938e+003,1.917665e+003
2.821866e+003,1.951690e+003
2.823794e+003,1.987677e+003
2.825723e+003,2.055686e+003
2.827651e+003,2.169844e+003
2.829580e+003,2.317469e+003
2.831508e+003,2.522331e+003
2.833437e+003,2.853940e+003
2.835365e+003,3.273027e+003
2.837294e+003,3.888395e+003
2.839222e+003,4.670239e+003
2.841151e+003,5.592637e+003
2.843079e+003,6.491261e+003
2.845008e+003,7.080216e+003
2.846936e+003,7.262122e+003
2.848865e+003,7.086996e+003
2.850793e+003,6.699087e+003
2.852721e+003,6.219687e+003
2.854650e+003,5.858623e+003
2.856578e+003,5.532140e+003
2.858507e+003,5.219747e+003
2.860435e+003,5.049260e+003
2.862364e+003,4.812715e+003
2.864292e+003,4.717947e+003
2.866221e+003,4.657710e+003
2.868149e+003,4.670571e+003
2.870078e+003,4.781748e+003
2.872006e+003,5.014726e+003
2.873935e+003,5.421258e+003
2.875863e+003,6.342792e+003
2.877792e+003,7.816813e+003
2.879720e+003,9.358370e+003
2.881648e+003,9.321810e+003
2.883577e+003,7.914815e+003
2.885505e+003,6.648707e+003
2.887434e+003,5.894848e+003
2.889362e+003,5.510332e+003
2.891291e+003,5.309321e+003
2.893219e+003,5.155728e+003
2.895148e+003,5.039819e+003
2.897076e+003,4.929175e+003
2.899005e+003,4.750121e+003
2.900933e+003,4.660417e+003
2.902862e+003,4.479647e+003
2.904790e+003,4.334906e+003
2.906719e+003,4.155179e+003
2.908647e+003,3.985443e+003
2.910575e+003,3.826839e+003
2.912504e+003,3.706202e+003
2.914432e+003,3.624647e+003
2.916361e+003,3.583635e+003
2.918289e+003,3.531333e+003
2.920218e+003,3.480872e+003
2.922146e+003,3.491929e+003
2.924075e+003,3.473377e+003
2.926003e+003,3.438047e+003
2.927932e+003,3.392992e+003
2.929860e+003,3.320090e+003
2.931789e+003,3.250595e+003
2.933717e+003,3.138698e+003
2.935646e+003,3.033204e+003
2.937574e+003,2.904505e+003
2.939502e+003,2.727909e+003
2.941431e+003,2.552455e+003
2.943359e+003,2.348903e+003
2.945288e+003,2.196418e+003
2.947216e+003,2.076677e+003
2.949145e+003,1.967451e+003
2.951073e+003,1.909178e+003
2.953002e+003,1.861906e+003
2.954930e+003,1.851160e+003
2.956859e+003,1.820445e+003
2.958787e+003,1.789757e+003
2.960716e+003,1.754690e+003
2.962644e+003,1.721117e+003
2.964573e+003,1.694078e+003
2.966501e+003,1.656746e+003
2.968429e+003,1.640615e+003
2.970358e+003,1.622764e+003
2.972286e+003,1.585884e+003
2.974215e+003,1.563195e+003
2.976143e+003,1.558752e+003
2.978072e+003,1.543815e+003
2.980000e+003,1.533638e+003
2.981929e+003,1.525967e+003
2.983857e+003,1.515651e+003
2.985786e+003,1.507115e+003
2.987714e+003,1.500864e+003
2.989643e+003,1.500038e+003
2.991571e+003,1.502045e+003
2.993500e+003,1.477196e+003
2.995428e+003,1.475656e+003
2.997356e+003,1.482687e+003
2.999285e+003,1.451273e+003
3.001213e+003,1.465405e+003
3.003142e+003,1.430839e+003
3.005070e+003,1.436798e+003
3.006999e+003,1.451090e+003
3.008927e+003,1.430268e+003
3.010856e+003,1.434971e+003
3.012784e+003,1.441244e+003
3.014713e+003,1.448926e+003
3.016641e+003,1.452946e+003
3.018570e+003,1.451899e+003
3.020498e+003,1.429967e+003
3.022427e+003,1.444430e+003
3.024355e+003,1.446138e+003
3.026283e+003,1.436137e+003
3.028212e+003,1.424226e+003
3.030140e+003,1.429054e+003
3.032069e+003,1.407769e+003
3.033997e+003,1.409236e+003
3.035926e+003,1.415182e+003
3.037854e+003,1.408297e+003
3.039783e+003,1.410676e+003
3.041711e+003,1.425675e+003
3.043640e+003,1.421582e+003
3.045568e+003,1.417737e+003
3.047497e+003,1.415157e+003
3.049425e+003,1.405855e+003
3.051354e+003,1.407135e+003
3.053282e+003,1.407811e+003
3.055210e+003,1.407465e+003
3.057139e+003,1.427964e+003
3.059067e+003,1.426011e+003
3.060996e+003,1.401631e+003
3.062924e+003,1.390087e+003
3.064853e+003,1.409491e+003
3.066781e+003,1.426816e+003
3.068710e+003,1.421131e+003
3.070638e+003,1.413613e+003
3.072567e+003,1.427969e+003
3.074495e+003,1.417108e+003
3.076424e+003,1.417890e+003
3.078352e+003,1.437568e+003
3.080281e+003,1.443856e+003
3.082209e+003,1.445144e+003
3.084137e+003,1.452483e+003
3.086066e+003,1.428062e+003
3.087994e+003,1.434746e+003
3.089923e+003,1.440781e+003
3.091851e+003,1.430150e+003
3.093780e+003,1.420077e+003
3.095708e+003,1.415339e+003
3.097637e+003,1.432479e+003
3.099565e+003,1.438639e+003
3.101494e+003,1.437427e+003
3.103422e+003,1.424910e+003
3.105351e+003,1.437040e+003
3.107279e+003,1.453221e+003
3.109208e+003,1.430254e+003
3.111136e+003,1.447572e+003
3.113064e+003,1.453667e+003
3.114993e+003,1.438728e+003
3.116921e+003,1.453717e+003
3.118850e+003,1.466359e+003
3.120778e+003,1.462682e+003
3.122707e+003,1.451664e+003
3.124635e+003,1.462843e+003
3.126564e+003,1.474346e+003
3.128492e+003,1.468362e+003
3.130421e+003,1.471450e+003
3.132349e+003,1.474672e+003
3.134278e+003,1.453516e+003
3.136206e+003,1.457596e+003
3.138135e+003,1.472583e+003
3.140063e+003,1.478804e+003
3.141991e+003,1.504758e+003
3.143920e+003,1.490913e+003
3.145848e+003,1.472896e+003
3.147777e+003,1.504879e+003
3.149705e+003,1.527655e+003
3.151634e+003,1.514978e+003
3.153562e+003,1.495106e+003
3.155491e+003,1.522839e+003
3.157419e+003,1.534432e+003
3.159348e+003,1.543799e+003
3.161276e+003,1.541964e+003
3.163205e+003,1.539739e+003
3.165133e+003,1.538369e+003
3.167062e+003,1.539163e+003
3.168990e+003,1.547758e+003
3.170918e+003,1.557035e+003
3.172847e+003,1.549547e+003
3.174775e+003,1.567034e+003
3.176704e+003,1.563903e+003
3.178632e+003,1.575825e+003
3.180561e+003,1.577994e+003
3.182489e+003,1.597194e+003
3.184418e+003,1.589528e+003
3.186346e+003,1.601188e+003
3.188275e+003,1.605321e+003
3.190203e+003,1.611681e+003
3.192132e+003,1.616607e+003
3.194060e+003,1.605654e+003
3.195989e+003,1.615232e+003
3.197917e+003,1.604573e+003
3.199845e+003,1.619695e+003
3.201774e+003,1.643394e+003
3.203702e+003,1.649131e+003
3.205631e+003,1.656942e+003
3.207559e+003,1.666547e+003
3.209488e+003,1.668720e+003
3.211416e+003,1.682765e+003
3.213345e+003,1.693282e+003
3.215273e+003,1.676981e+003
3.217202e+003,1.673318e+003
3.219130e+003,1.688954e+003
3.221059e+003,1.703063e+003
3.222987e+003,1.712625e+003
3.224916e+003,1.711077e+003
3.226844e+003,1.717315e+003
3.228772e+003,1.738447e+003
3.230701e+003,1.744358e+003
3.232629e+003,1.734815e+003
3.234558e+003,1.724356e+003
3.236486e+003,1.751928e+003
3.238415e+003,1.741902e+003
3.240343e+003,1.768539e+003
3.242272e+003,1.767039e+003
3.244200e+003,1.749263e+003
3.246129e+003,1.778700e+003
3.248057e+003,1.778054e+003
3.249986e+003,1.787819e+003
3.251914e+003,1.794852e+003
3.253843e+003,1.776176e+003
3.255771e+003,1.775450e+003
3.257699e+003,1.798368e+003
3.259628e+003,1.823932e+003
3.261556e+003,1.830674e+003
3.263485e+003,1.816240e+003
3.265413e+003,1.853032e+003
3.267342e+003,1.855528e+003
3.269270e+003,1.849555e+003
3.271199e+003,1.840831e+003
3.273127e+003,1.837814e+003
3.275056e+003,1.854403e+003
3.276984e+003,1.856227e+003
3.278913e+003,1.881888e+003
3.280841e+003,1.874977e+003
3.282770e+003,1.888817e+003
3.284698e+003,1.890013e+003
3.286626e+003,1.905302e+003
3.288555e+003,1.901112e+003
3.290483e+003,1.919943e+003
3.292412e+003,1.915172e+003
3.294340e+003,1.923246e+003
3.296269e+003,1.935233e+003
3.298197e+003,1.933190e+003
3.300126e+003,1.934906e+003
3.302054e+003,1.971192e+003
3.303983e+003,1.959619e+003
3.305911e+003,1.944864e+003
3.307840e+003,1.964955e+003
3.309768e+003,1.961403e+003
3.311697e+003,1.974237e+003
3.313625e+003,1.983224e+003
3.315553e+003,1.986936e+003
3.317482e+003,2.005243e+003
3.319410e+003,2.012603e+003
3.321339e+003,2.016134e+003
3.323267e+003,2.025248e+003
3.325196e+003,2.039632e+003
3.327124e+003,2.025691e+003
3.329053e+003,2.028225e+003
3.330981e+003,2.062688e+003
3.332910e+003,2.044931e+003
3.334838e+003,2.048401e+003
3.336767e+003,2.070241e+003
3.338695e+003,2.085323e+003
3.340624e+003,2.089848e+003
3.342552e+003,2.077066e+003
3.344480e+003,2.084355e+003
3.346409e+003,2.106651e+003
3.348337e+003,2.119881e+003
3.350266e+003,2.111102e+003
3.352194e+003,2.111350e+003
3.354123e+003,2.110076e+003
3.356051e+003,2.133850e+003
3.357980e+003,2.159865e+003
3.359908e+003,2.170773e+003
3.361837e+003,2.180190e+003
3.363765e+003,2.165889e+003
3.365694e+003,2.160444e+003
3.367622e+003,2.185926e+003
3.369551e+003,2.169539e+003
3.371479e+003,2.202054e+003
3.373407e+003,2.208356e+003
3.375336e+003,2.210095e+003
3.377264e+003,2.204925e+003
3.379193e+003,2.218861e+003
3.381121e+003,2.215710e+003
3.383050e+003,2.218428e+003
3.384978e+003,2.228636e+003
3.386907e+003,2.246239e+003
3.388835e+003,2.269963e+003
3.390764e+003,2.242989e+003
3.392692e+003,2.250390e+003
3.394621e+003,2.267942e+003
3.396549e+003,2.289900e+003
3.398478e+003,2.309138e+003
3.400406e+003,2.270610e+003
