5.065916e+001,3.063707e+003
5.258762e+001,2.984583e+003
5.451609e+001,2.968891e+003
5.644456e+001,2.986479e+003
5.837302e+001,3.002763e+003
6.030149e+001,2.993772e+003
6.222996e+001,3.003460e+003
6.415842e+001,3.012942e+003
6.608689e+001,3.050105e+003
6.801536e+001,3.110064e+003
6.994382e+001,3.145550e+003
7.187229e+001,3.151359e+003
7.380076e+001,3.100265e+003
7.572923e+001,3.013753e+003
7.765769e+001,2.903254e+003
7.958616e+001,2.719807e+003
8.151463e+001,2.523228e+003
8.344309e+001,2.313172e+003
8.537156e+001,2.113565e+003
8.730003e+001,1.953961e+003
8.922849e+001,1.822827e+003
9.115696e+001,1.689657e+003
9.308543e+001,1.579886e+003
9.501389e+001,1.489036e+003
9.694236e+001,1.382195e+003
9.887083e+001,1.343976e+003
1.007993e+002,1.260080e+003
1.027278e+002,1.157565e+003
1.046562e+002,1.083229e+003
1.065847e+002,1.059453e+003
1.085132e+002,1.008216e+003
1.104416e+002,9.545769e+002
1.123701e+002,9.123945e+002
1.142986e+002,8.893147e+002
1.162270e+002,8.878188e+002
1.181555e+002,8.838477e+002
1.200840e+002,9.122749e+002
1.220124e+002,9.589944e+002
1.239409e+002,9.779138e+002
1.258694e+002,9.524890e+002
1.277978e+002,9.337769e+002
1.297263e+002,9.045593e+002
1.316548e+002,8.450835e+002
1.335832e+002,7.466719e+002
1.355117e+002,6.617432e+002
1.374402e+002,5.866206e+002
1.393686e+002,5.071980e+002
1.412971e+002,4.219304e+002
1.432256e+002,3.550381e+002
1.451540e+002,2.965486e+002
1.470825e+002,2.598965e+002
1.490110e+002,2.297600e+002
1.509394e+002,1.867759e+002
1.528679e+002,1.250891e+002
1.547964e+002,1.209297e+002
1.567248e+002,1.381511e+002
1.586533e+002,1.338875e+002
1.605818e+002,8.788306e+001
1.625102e+002,6.994873e+001
1.644387e+002,8.449463e+001
1.663672e+002,8.189331e+001
1.682956e+002,6.343286e+001
1.702241e+002,6.273657e+001
1.721526e+002,8.687915e+001
1.740810e+002,7.520654e+001
1.760095e+002,6.733276e+001
1.779380e+002,6.769824e+001
1.798664e+002,4.780786e+001
1.817949e+002,3.650464e+001
1.837234e+002,2.294214e+001
1.856518e+002,1.826147e+001
1.875803e+002,1.900708e+001
1.895088e+002,5.238281e+000
1.914372e+002,-1.372974e+001
1.933657e+002,-1.736426e+001
1.952942e+002,-1.337842e+001
1.972226e+002,-1.223633e+001
1.991511e+002,-1.919165e+001
2.010796e+002,-1.994287e+001
2.030080e+002,-1.089307e+001
2.049365e+002,2.103516e+000
2.068650e+002,8.438232e+000
2.087934e+002,-4.648682e+000
2.107219e+002,-3.426001e+001
2.126504e+002,-2.054956e+001
2.145788e+002,-3.266602e-001
2.165073e+002,-3.110352e-001
2.184358e+002,1.416797e+001
2.203642e+002,3.261230e+000
2.222927e+002,-2.554126e+001
2.242212e+002,-2.825098e+001
2.261496e+002,2.567139e+000
2.280781e+002,-1.009570e+001
2.300066e+002,-5.535400e+000
2.319350e+002,-6.334229e+000
2.338635e+002,-2.411694e+001
2.357920e+002,-4.761523e+001
2.377204e+002,-3.033984e+001
2.396489e+002,-2.050781e-002
2.415774e+002,8.325195e-001
2.435058e+002,-9.246094e+000
2.454343e+002,-1.630371e+000
2.473628e+002,3.093091e+001
2.492912e+002,2.956348e+001
2.512197e+002,1.865015e+001
2.531482e+002,2.288379e+001
2.550766e+002,4.273486e+001
2.570051e+002,3.625610e+001
2.589336e+002,2.708862e+001
2.608620e+002,3.482739e+001
2.627905e+002,4.657813e+001
2.647190e+002,5.509790e+001
2.666474e+002,7.788110e+001
2.685759e+002,1.030620e+002
2.705044e+002,1.230022e+002
2.724328e+002,1.532886e+002
2.743613e+002,1.999807e+002
2.762898e+002,2.450825e+002
2.782182e+002,2.586760e+002
2.801467e+002,2.383870e+002
2.820752e+002,1.969561e+002
2.840036e+002,1.459324e+002
2.859321e+002,9.199463e+001
2.878606e+002,7.168408e+001
2.897890e+002,4.414014e+001
2.917175e+002,4.090356e+001
2.936460e+002,5.306787e+001
2.955744e+002,2.858521e+001
2.975029e+002,2.307739e+001
2.994314e+002,1.191211e+001
3.013598e+002,1.898730e+001
3.032883e+002,3.021509e+001
3.052168e+002,1.006494e+001
3.071452e+002,1.687573e+001
3.090737e+002,7.610352e+000
3.110022e+002,-7.524414e+000
3.129306e+002,-1.839136e+001
3.148591e+002,-2.177124e+001
3.167876e+002,-3.076074e+001
3.187160e+002,-1.531177e+001
3.206445e+002,-7.565186e+000
3.225730e+002,3.505615e+000
3.245014e+002,2.522119e+001
3.264299e+002,-8.128662e+000
3.283584e+002,-1.356396e+001
3.302868e+002,-2.742749e+001
3.322153e+002,-2.765942e+001
3.341438e+002,1.990723e+000
3.360722e+002,2.680859e+001
3.380007e+002,8.530273e+000
3.399292e+002,-6.793945e+000
3.418576e+002,-1.576123e+001
3.437861e+002,-1.982397e+001
3.457146e+002,-1.487671e+001
3.476430e+002,-1.043604e+001
3.495715e+002,-6.167236e+000
3.515000e+002,-5.701172e+000
3.534284e+002,-8.014648e+000
3.553569e+002,-6.780518e+000
3.572854e+002,1.110596e+001
3.592138e+002,-4.818604e+000
3.611423e+002,-2.551611e+001
3.630708e+002,-2.017554e+001
3.649992e+002,1.361597e+001
3.669277e+002,6.772949e+000
3.688562e+002,1.024341e+001
3.707846e+002,1.529053e+000
3.727131e+002,-1.351782e+001
3.746416e+002,-2.302808e+001
3.765700e+002,-2.337793e+001
3.784985e+002,-1.151221e+001
3.804270e+002,-1.356763e+001
3.823554e+002,-2.889648e+000
3.842839e+002,1.440454e+001
3.862124e+002,-2.644775e+000
3.881408e+002,-3.842334e+001
3.900693e+002,-2.665283e+001
3.919978e+002,-1.090674e+001
3.939262e+002,-5.742432e+000
3.958547e+002,-4.975586e-001
3.977832e+002,1.700586e+001
3.997116e+002,2.862451e+001
4.016401e+002,4.871143e+001
4.035686e+002,4.663745e+001
4.054970e+002,1.446851e+001
4.074255e+002,5.981445e-002
4.093540e+002,7.823486e+000
4.112824e+002,3.198486e+000
4.132109e+002,6.690674e+000
4.151394e+002,1.264087e+001
4.170678e+002,-8.696289e-001
4.189963e+002,6.078125e+000
4.209248e+002,1.320947e+001
4.228532e+002,4.334717e+000
4.247817e+002,-1.138892e+001
4.267102e+002,-1.849194e+001
4.286386e+002,-1.406909e+001
4.305671e+002,-6.218262e-001
4.324956e+002,2.291113e+001
4.344240e+002,1.962891e+001
4.363525e+002,5.701172e+000
4.382810e+002,3.258374e+001
4.402094e+002,4.739258e+000
4.421379e+002,9.362793e-001
4.440664e+002,1.900146e+000
4.459948e+002,3.420898e+000
4.479233e+002,1.151196e+001
4.498518e+002,2.967603e+001
4.517802e+002,1.415356e+001
4.537087e+002,-1.432861e+000
4.556372e+002,-6.080811e+000
4.575656e+002,-2.062988e-001
4.594941e+002,8.298340e+000
4.614226e+002,9.307861e+000
4.633510e+002,2.260742e-001
4.652795e+002,2.806152e+000
4.672080e+002,1.373218e+001
4.691364e+002,2.603857e+001
4.710649e+002,4.797070e+001
4.729934e+002,9.066650e+000
4.749218e+002,-9.478027e+000
4.768503e+002,-1.732202e+001
4.787788e+002,-1.896143e+001
4.807072e+002,-3.047119e+000
4.826357e+002,3.146021e+001
4.845642e+002,-3.877686e+000
4.864926e+002,-2.019360e+001
4.884211e+002,-1.361938e+001
4.903496e+002,-3.541992e+000
4.922780e+002,8.074707e+000
4.942065e+002,8.351074e+000
4.961350e+002,-7.004639e+000
4.980634e+002,-1.725635e+001
4.999919e+002,-1.080591e+001
5.019204e+002,7.762695e+000
5.038488e+002,1.564819e+001
5.057773e+002,-4.101563e-001
5.077058e+002,-2.143213e+001
5.096342e+002,-4.626465e+000
5.115627e+002,2.906470e+001
5.134912e+002,1.425781e+001
5.154197e+002,-2.292480e+000
5.173481e+002,1.647681e+001
5.192766e+002,3.173267e+001
5.212051e+002,3.182324e+001
5.231335e+002,2.004224e+001
5.250620e+002,4.160156e+000
5.269905e+002,8.312988e-001
5.289189e+002,3.169922e+000
5.308474e+002,2.712891e+000
5.327759e+002,4.819580e+000
5.347043e+002,1.709644e+001
5.366328e+002,3.222583e+001
5.385613e+002,3.641357e+000
5.404897e+002,-8.995605e+000
5.424182e+002,-2.583984e+000
5.443467e+002,-4.802002e+000
5.462751e+002,-3.024585e+001
5.482036e+002,-6.480225e+000
5.501321e+002,1.044556e+001
5.520605e+002,-9.048340e+000
5.539890e+002,-3.367749e+001
5.559175e+002,-3.467163e+001
5.578459e+002,-1.281616e+001
5.597744e+002,-2.196045e+000
5.617029e+002,1.716943e+001
5.636313e+002,9.827881e+000
5.655598e+002,-3.620850e+000
5.674883e+002,3.958740e+000
5.694167e+002,3.291699e+001
5.713452e+002,4.188330e+001
5.732737e+002,3.044067e+001
5.752021e+002,1.769653e+001
5.771306e+002,-1.975342e+000
5.790591e+002,-1.650439e+001
5.809875e+002,1.417456e+001
5.829160e+002,1.153931e+001
5.848445e+002,-1.568359e+000
5.867729e+002,-9.465576e+000
5.887014e+002,-1.321631e+001
5.906299e+002,-1.746997e+001
5.925583e+002,-1.916504e+001
5.944868e+002,-3.024658e+001
5.964153e+002,-9.053223e+000
5.983438e+002,5.620605e+000
6.002722e+002,3.359131e+000
6.022007e+002,-4.012207e+000
6.041292e+002,-5.148926e+000
6.060576e+002,-1.647437e+001
6.079861e+002,-1.411255e+001
6.099146e+002,-2.195679e+001
6.118430e+002,-1.282471e+001
6.137715e+002,1.523926e+001
6.157000e+002,-2.438892e+001
6.176284e+002,-1.048730e+001
6.195569e+002,1.048828e+000
6.214854e+002,2.050635e+001
6.234138e+002,6.832031e+001
6.253423e+002,1.678250e+002
6.272708e+002,3.391536e+002
6.291992e+002,5.837288e+002
6.311277e+002,5.854807e+002
6.330562e+002,3.838503e+002
6.349846e+002,1.554468e+002
6.369131e+002,4.186279e+001
6.388416e+002,2.212402e+001
6.407700e+002,6.066406e+000
6.426985e+002,-2.922607e+000
6.446270e+002,-9.567627e+000
6.465554e+002,-6.723633e-001
6.484839e+002,1.457568e+001
6.504124e+002,-4.024170e+000
6.523408e+002,1.354565e+001
6.542693e+002,2.289233e+001
6.561978e+002,5.938721e+000
6.581262e+002,-1.441016e+001
6.600547e+002,-1.176294e+001
6.619832e+002,8.483643e+000
6.639116e+002,-2.818823e+001
6.658401e+002,-2.069604e+001
6.677686e+002,3.694580e+000
6.696970e+002,7.265869e+000
6.716255e+002,-1.575146e+001
6.735540e+002,-3.592310e+001
6.754824e+002,-3.338916e+001
6.774109e+002,-2.152222e+001
6.793394e+002,1.171875e+000
6.812678e+002,5.993408e+000
6.831963e+002,-1.893091e+001
6.851248e+002,-4.765845e+001
6.870532e+002,-1.829956e+001
6.889817e+002,-1.172949e+001
6.909102e+002,-2.324414e+001
6.928386e+002,-1.427271e+001
6.947671e+002,8.822510e+000
6.966956e+002,3.520508e+001
6.986240e+002,1.025193e+002
7.005525e+002,1.725037e+002
7.024810e+002,1.566536e+002
7.044094e+002,9.351978e+001
7.063379e+002,4.386841e+001
7.082664e+002,2.672949e+001
7.101948e+002,3.445801e+000
7.121233e+002,-3.657886e+001
7.140518e+002,-3.393506e+001
7.159802e+002,-3.245361e+001
7.179087e+002,-3.925562e+001
7.198372e+002,-4.059277e+001
7.217656e+002,-2.550610e+001
7.236941e+002,-1.300146e+001
7.256226e+002,3.075195e+000
7.275510e+002,-1.889014e+001
7.294795e+002,-2.515039e+001
7.314080e+002,-1.991162e+001
7.333364e+002,-2.844873e+001
7.352649e+002,-3.074927e+001
7.371934e+002,-3.161060e+001
7.391218e+002,-3.181812e+001
7.410503e+002,-4.217871e+001
7.429788e+002,-4.490552e+001
7.449072e+002,-2.854102e+001
7.468357e+002,-1.207397e+001
7.487642e+002,-4.657275e+001
7.506926e+002,-3.135889e+001
7.526211e+002,-3.243677e+001
7.545496e+002,-2.979858e+001
7.564780e+002,-3.147656e+001
7.584065e+002,-4.729150e+001
7.603350e+002,-4.117700e+001
7.622634e+002,-5.947437e+001
7.641919e+002,-7.014526e+001
7.661204e+002,-4.431592e+001
7.680488e+002,-3.734717e+001
7.699773e+002,-5.372607e+001
7.719058e+002,-3.619092e+001
7.738342e+002,-2.278174e+001
7.757627e+002,-2.989722e+001
7.776912e+002,-2.953491e+001
7.796196e+002,-1.726074e+001
7.815481e+002,-4.862793e+000
7.834766e+002,-5.664795e+000
7.854050e+002,-1.467163e+001
7.873335e+002,2.380005e+001
7.892620e+002,5.266064e+001
7.911904e+002,1.546169e+002
7.931189e+002,2.249917e+002
7.950474e+002,1.888440e+002
7.969758e+002,9.389697e+001
7.989043e+002,7.007520e+001
8.008328e+002,3.120801e+001
8.027612e+002,1.908545e+001
8.046897e+002,3.459937e+001
8.066182e+002,5.187109e+001
8.085466e+002,4.555786e+001
8.104751e+002,1.807129e+001
8.124036e+002,1.740845e+001
8.143320e+002,4.152368e+001
8.162605e+002,3.597559e+001
8.181890e+002,4.429199e+001
8.201174e+002,5.615137e+001
8.220459e+002,3.777881e+001
8.239744e+002,-4.343262e-001
8.259028e+002,3.806104e+001
8.278313e+002,8.186816e+001
8.297598e+002,7.876514e+001
8.316882e+002,6.948071e+001
8.336167e+002,7.329663e+001
8.355452e+002,7.842114e+001
8.374736e+002,7.894019e+001
8.394021e+002,1.124065e+002
8.413306e+002,1.601211e+002
8.432590e+002,1.964526e+002
8.451875e+002,2.336716e+002
8.471160e+002,2.933438e+002
8.490444e+002,3.854600e+002
8.509729e+002,5.044404e+002
8.529014e+002,6.725635e+002
8.548298e+002,9.298713e+002
8.567583e+002,1.047793e+003
8.586868e+002,9.726606e+002
8.606152e+002,7.598311e+002
8.625437e+002,5.106804e+002
8.644722e+002,3.235015e+002
8.664006e+002,2.215803e+002
8.683291e+002,1.778569e+002
8.702576e+002,1.479199e+002
8.721860e+002,1.286633e+002
8.741145e+002,1.106973e+002
8.760430e+002,8.139697e+001
8.779714e+002,5.752759e+001
8.798999e+002,7.253271e+001
8.818284e+002,7.928735e+001
8.837568e+002,6.732935e+001
8.856853e+002,5.782202e+001
8.876138e+002,4.853491e+001
8.895422e+002,3.602734e+001
8.914707e+002,5.117480e+001
8.933992e+002,3.683350e+001
8.953276e+002,-1.813721e+000
8.972561e+002,2.506665e+001
8.991846e+002,1.733032e+001
9.011130e+002,-1.773584e+001
9.030415e+002,-1.424634e+001
9.049700e+002,-3.940918e+000
9.068984e+002,-1.532349e+001
9.088269e+002,-4.119312e+001
9.107554e+002,-4.368921e+001
9.126838e+002,-3.221655e+001
9.146123e+002,-3.040869e+001
9.165408e+002,-3.518994e+001
9.184692e+002,-2.261377e+001
9.203977e+002,-4.312915e+001
9.223262e+002,-4.010010e+001
9.242546e+002,-4.154150e+001
9.261831e+002,-5.436475e+001
9.281116e+002,-5.729199e+001
9.300400e+002,-4.161377e+001
9.319685e+002,-3.197900e+001
9.338970e+002,-5.628564e+001
9.358254e+002,-1.222095e+001
9.377539e+002,-1.966699e+001
9.396824e+002,-4.477148e+001
9.416108e+002,-6.100854e+001
9.435393e+002,-5.840503e+001
9.454678e+002,-4.261792e+001
9.473962e+002,-3.318579e+001
9.493247e+002,-5.070215e+001
9.512532e+002,-3.935571e+001
9.531816e+002,-4.112427e+001
9.551101e+002,-3.377905e+001
9.570386e+002,-4.234595e+001
9.589670e+002,-5.922217e+001
9.608955e+002,-2.247583e+001
9.628240e+002,-2.870313e+001
9.647524e+002,-2.006274e+001
9.666809e+002,-2.926978e+001
9.686094e+002,-4.751367e+001
9.705378e+002,-4.079810e+001
9.724663e+002,-1.064722e+001
9.743948e+002,4.428467e+000
9.763232e+002,-1.521460e+001
9.782517e+002,-4.058105e+001
9.801802e+002,-4.802539e+001
9.821086e+002,-3.160034e+001
9.840371e+002,-2.728760e+000
9.859656e+002,2.270996e+001
9.878940e+002,2.356787e+001
9.898225e+002,7.909424e+000
9.917510e+002,8.035278e+001
9.936794e+002,5.283643e+001
9.956079e+002,6.488647e+001
9.975364e+002,6.940576e+001
9.994648e+002,8.177734e+001
1.001393e+003,8.285815e+001
1.003322e+003,5.300952e+001
1.005250e+003,4.292358e+001
1.007179e+003,2.374634e+001
1.009107e+003,4.968506e+000
1.011036e+003,1.190405e+001
1.012964e+003,1.121631e+001
1.014893e+003,-2.394287e+000
1.016821e+003,-3.081787e+000
1.018750e+003,2.045166e+001
1.020678e+003,2.349951e+001
1.022606e+003,-1.187964e+001
1.024535e+003,5.587891e+000
1.026463e+003,9.803467e+000
1.028392e+003,1.111938e+001
1.030320e+003,1.278687e+001
1.032249e+003,4.608398e+000
1.034177e+003,-1.143677e+001
1.036106e+003,-8.012207e+000
1.038034e+003,-1.432056e+001
1.039963e+003,-1.666577e+001
1.041891e+003,-2.049585e+001
1.043820e+003,-2.461743e+001
1.045748e+003,-1.777856e+001
1.047677e+003,-2.849854e+000
1.049605e+003,-2.272217e+000
1.051533e+003,-2.373828e+001
1.053462e+003,-1.756201e+001
1.055390e+003,-3.761206e+001
1.057319e+003,-2.421899e+001
1.059247e+003,-2.493555e+001
1.061176e+003,-2.637793e+001
1.063104e+003,-1.187988e+001
1.065033e+003,-9.298584e+000
1.066961e+003,-1.249976e+001
1.068890e+003,-4.135254e+000
1.070818e+003,5.480957e+000
1.072747e+003,8.927734e+000
1.074675e+003,2.584937e+001
1.076604e+003,6.259351e+001
1.078532e+003,9.804932e+001
1.080460e+003,1.026721e+002
1.082389e+003,8.174561e+001
1.084317e+003,1.171790e+002
1.086246e+003,1.916572e+002
1.088174e+003,2.780154e+002
1.090103e+003,4.199658e+002
1.092031e+003,5.166582e+002
1.093960e+003,5.091270e+002
1.095888e+003,4.440115e+002
1.097817e+003,3.581860e+002
1.099745e+003,2.845720e+002
1.101674e+003,2.410581e+002
1.103602e+003,2.308215e+002
1.105531e+003,2.271702e+002
1.107459e+003,2.318933e+002
1.109387e+003,2.511807e+002
1.111316e+003,2.760005e+002
1.113244e+003,2.902825e+002
1.115173e+003,3.009871e+002
1.117101e+003,3.237141e+002
1.119030e+003,3.218413e+002
1.120958e+003,2.709045e+002
1.122887e+003,2.043770e+002
1.124815e+003,1.539695e+002
1.126744e+003,1.190413e+002
1.128672e+003,9.322314e+001
1.130601e+003,9.841626e+001
1.132529e+003,7.263208e+001
1.134458e+003,5.627246e+001
1.136386e+003,4.308569e+001
1.138314e+003,3.517188e+001
1.140243e+003,2.734985e+001
1.142171e+003,1.874609e+001
1.144100e+003,1.883740e+001
1.146028e+003,2.919409e+001
1.147957e+003,1.270190e+001
1.149885e+003,-8.825439e+000
1.151814e+003,-2.141089e+001
1.153742e+003,8.261230e+000
1.155671e+003,-7.119141e-001
1.157599e+003,-3.076733e+001
1.159528e+003,-3.662280e+001
1.161456e+003,-2.686060e+001
1.163385e+003,-2.906152e+001
1.165313e+003,-1.823975e+000
1.167241e+003,1.530200e+001
1.169170e+003,4.022266e+001
1.171098e+003,6.687646e+001
1.173027e+003,8.337769e+001
1.174955e+003,9.326709e+001
1.176884e+003,9.790625e+001
1.178812e+003,1.040623e+002
1.180741e+003,1.403943e+002
1.182669e+003,1.652007e+002
1.184598e+003,1.543811e+002
1.186526e+003,1.578484e+002
1.188455e+003,1.727080e+002
1.190383e+003,1.312214e+002
1.192312e+003,7.759644e+001
1.194240e+003,5.814380e+001
1.196168e+003,4.501831e+001
1.198097e+003,3.322803e+001
1.200025e+003,4.671387e+000
1.201954e+003,-1.880347e+001
1.203882e+003,-3.740112e+001
1.205811e+003,-4.047998e+001
1.207739e+003,-2.989722e+001
1.209668e+003,-2.011694e+001
1.211596e+003,-9.433594e+000
1.213525e+003,-8.459473e-001
1.215453e+003,-2.756006e+001
1.217382e+003,-3.209839e+001
1.219310e+003,-3.120630e+001
1.221239e+003,-5.331860e+001
1.223167e+003,-3.536108e+001
1.225095e+003,-1.569556e+001
1.227024e+003,-2.307593e+001
1.228952e+003,-3.058325e+001
1.230881e+003,-1.748511e+001
1.232809e+003,-1.827075e+001
1.234738e+003,-2.268774e+001
1.236666e+003,1.665381e+001
1.238595e+003,4.656177e+001
1.240523e+003,2.249048e+001
1.242452e+003,9.158203e+000
1.244380e+003,1.987378e+001
1.246309e+003,3.056494e+001
1.248237e+003,2.232959e+001
1.250166e+003,1.055835e+001
1.252094e+003,3.396997e+001
1.254022e+003,1.964819e+001
1.255951e+003,9.299170e+001
1.257879e+003,1.265176e+002
1.259808e+003,1.156279e+002
1.261736e+003,1.254868e+002
1.263665e+003,1.656462e+002
1.265593e+003,1.982876e+002
1.267522e+003,2.169780e+002
1.269450e+003,2.716987e+002
1.271379e+003,3.781807e+002
1.273307e+003,4.915337e+002
1.275236e+003,6.247227e+002
1.277164e+003,7.386201e+002
1.279093e+003,8.052480e+002
1.281021e+003,8.203252e+002
1.282949e+003,8.138618e+002
1.284878e+003,8.198535e+002
1.286806e+003,8.529258e+002
1.288735e+003,9.025645e+002
1.290663e+003,9.034409e+002
1.292592e+003,8.243301e+002
1.294520e+003,7.305068e+002
1.296449e+003,6.031680e+002
1.298377e+003,4.835117e+002
1.300306e+003,4.087168e+002
1.302234e+003,3.636597e+002
1.304163e+003,3.280347e+002
1.306091e+003,2.964297e+002
1.308020e+003,2.507368e+002
1.309948e+003,2.312046e+002
1.311876e+003,2.016660e+002
1.313805e+003,2.015415e+002
1.315733e+003,1.875195e+002
1.317662e+003,1.524868e+002
1.319590e+003,1.214507e+002
1.321519e+003,9.393018e+001
1.323447e+003,5.773633e+001
1.325376e+003,2.939258e+001
1.327304e+003,3.376660e+001
1.329233e+003,2.604980e+001
1.331161e+003,6.207520e+000
1.333090e+003,2.779297e+000
1.335018e+003,-1.470703e+000
1.336947e+003,-3.194824e+000
1.338875e+003,-2.137695e+000
1.340803e+003,2.513477e+001
1.342732e+003,2.016016e+001
1.344660e+003,-2.277148e+001
1.346589e+003,1.735840e+000
1.348517e+003,-1.145508e+001
1.350446e+003,-1.728271e+001
1.352374e+003,-3.358496e+001
1.354303e+003,-1.670410e+001
1.356231e+003,-1.228271e+001
1.358160e+003,-1.456299e+001
1.360088e+003,-6.210938e+000
1.362017e+003,3.817871e+000
1.363945e+003,4.570313e-001
1.365874e+003,-7.584473e+000
1.367802e+003,-7.601563e+000
1.369730e+003,-2.181396e+001
1.371659e+003,2.603467e+001
1.373587e+003,-2.760742e+000
1.375516e+003,6.870117e+000
1.377444e+003,7.923828e+000
1.379373e+003,-3.409668e+000
1.381301e+003,-2.139160e+001
1.383230e+003,-3.414355e+001
1.385158e+003,-2.960986e+001
1.387087e+003,-8.325684e+000
1.389015e+003,1.141992e+001
1.390944e+003,-7.806641e+000
1.392872e+003,-4.049756e+001
1.394801e+003,-4.437207e+001
1.396729e+003,-2.880127e+001
1.398657e+003,8.790527e+000
1.400586e+003,3.327148e+000
1.402514e+003,2.581104e+001
1.404443e+003,4.665186e+001
1.406371e+003,4.442236e+001
1.408300e+003,7.639063e+001
1.410228e+003,8.934033e+001
1.412157e+003,1.222769e+002
1.414085e+003,1.446855e+002
1.416014e+003,1.331074e+002
1.417942e+003,1.244136e+002
1.419871e+003,7.231982e+001
1.421799e+003,2.124072e+001
1.423728e+003,1.134326e+001
1.425656e+003,1.825391e+001
1.427584e+003,2.295215e+001
1.429513e+003,3.657373e+001
1.431441e+003,4.183643e+001
1.433370e+003,8.609375e+000
1.435298e+003,-3.036133e+000
1.437227e+003,3.792822e+001
1.439155e+003,3.439014e+001
1.441084e+003,4.162158e+001
1.443012e+003,7.754980e+001
1.444941e+003,5.466943e+001
1.446869e+003,5.660889e+001
1.448798e+003,9.862939e+001
1.450726e+003,1.073315e+002
1.452655e+003,8.005420e+001
1.454583e+003,6.576709e+001
1.456511e+003,8.216699e+001
1.458440e+003,9.867236e+001
1.460368e+003,9.776318e+001
1.462297e+003,9.594238e+001
1.464225e+003,7.428711e+001
1.466154e+003,1.740332e+001
1.468082e+003,1.494775e+001
1.470011e+003,6.772461e+000
1.471939e+003,1.039453e+001
1.473868e+003,2.364453e+001
1.475796e+003,-1.477002e+001
1.477725e+003,-2.574951e+001
1.479653e+003,-2.593848e+001
1.481582e+003,-3.631445e+001
1.483510e+003,-4.108252e+001
1.485438e+003,-2.975146e+001
1.487367e+003,-1.124951e+001
1.489295e+003,6.025879e+000
1.491224e+003,-1.091797e+000
1.493152e+003,1.527686e+001
1.495081e+003,-7.212891e+000
1.497009e+003,-6.337988e+001
1.498938e+003,-6.097168e+001
1.500866e+003,-2.387109e+001
1.502795e+003,-7.979004e+000
1.504723e+003,-2.294873e+001
1.506652e+003,-1.381396e+001
1.508580e+003,-1.591699e+001
1.510509e+003,3.859375e+000
1.512437e+003,5.082520e+000
1.514365e+003,-2.468164e+001
1.516294e+003,-4.576758e+001
1.518222e+003,-5.393750e+001
1.520151e+003,-5.719238e+001
1.522079e+003,-4.954150e+001
1.524008e+003,-4.065625e+001
1.525936e+003,-3.673584e+001
1.527865e+003,5.170898e+000
1.529793e+003,7.838867e+000
1.531722e+003,-7.891602e+000
1.533650e+003,-1.551709e+001
1.535579e+003,-1.962451e+001
1.537507e+003,-1.653320e+001
1.539436e+003,9.218750e+000
1.541364e+003,1.572412e+001
1.543292e+003,-6.499023e-001
1.545221e+003,-1.506494e+001
1.547149e+003,-1.638867e+001
1.549078e+003,-2.179688e+000
1.551006e+003,6.613770e+000
1.552935e+003,-2.057715e+001
1.554863e+003,2.648730e+001
1.556792e+003,7.114941e+001
1.558720e+003,6.063525e+001
1.560649e+003,9.646484e+000
1.562577e+003,-2.876465e+000
1.564506e+003,4.486084e+001
1.566434e+003,2.268555e+000
1.568363e+003,-2.803223e+000
1.570291e+003,1.465137e+001
1.572219e+003,1.608252e+001
1.574148e+003,3.539648e+001
1.576076e+003,6.127246e+001
1.578005e+003,6.821582e+001
1.579933e+003,9.058350e+001
1.581862e+003,7.127832e+001
1.583790e+003,6.538916e+001
1.585719e+003,8.000439e+001
1.587647e+003,1.091318e+002
1.589576e+003,1.184111e+002
1.591504e+003,9.795068e+001
1.593433e+003,1.216284e+002
1.595361e+003,1.941309e+002
1.597290e+003,2.808281e+002
1.599218e+003,3.810181e+002
1.601146e+003,5.197222e+002
1.603075e+003,7.225366e+002
1.605003e+003,1.026912e+003
1.606932e+003,1.488502e+003
1.608860e+003,2.144020e+003
1.610789e+003,2.916737e+003
1.612717e+003,3.517225e+003
1.614646e+003,3.497519e+003
1.616574e+003,2.714119e+003
1.618503e+003,1.679764e+003
1.620431e+003,9.613550e+002
1.622360e+003,5.666592e+002
1.624288e+003,3.648491e+002
1.626217e+003,2.470415e+002
1.628145e+003,1.893877e+002
1.630073e+003,1.623311e+002
1.632002e+003,1.284058e+002
1.633930e+003,1.077402e+002
1.635859e+003,1.053711e+002
1.637787e+003,9.895654e+001
1.639716e+003,1.015918e+002
1.641644e+003,7.047070e+001
1.643573e+003,5.648926e+001
1.645501e+003,5.565674e+001
1.647430e+003,3.483740e+001
1.649358e+003,5.851416e+001
1.651287e+003,9.005811e+001
1.653215e+003,7.121875e+001
1.655144e+003,4.135840e+001
1.657072e+003,2.595020e+001
1.659000e+003,1.832373e+001
1.660929e+003,2.365527e+001
1.662857e+003,3.365869e+001
1.664786e+003,1.563232e+001
1.666714e+003,-1.643701e+001
1.668643e+003,-3.853027e+000
1.670571e+003,3.948975e+001
1.672500e+003,3.766895e+001
1.674428e+003,6.219189e+001
1.676357e+003,5.517334e+001
1.678285e+003,8.205859e+001
1.680214e+003,9.095459e+001
1.682142e+003,5.747998e+001
1.684071e+003,5.595947e+001
1.685999e+003,5.392139e+001
1.687927e+003,4.262158e+001
1.689856e+003,3.672803e+001
1.691784e+003,4.821973e+001
1.693713e+003,8.034912e+001
1.695641e+003,1.096704e+002
1.697570e+003,1.096567e+002
1.699498e+003,9.807861e+001
1.701427e+003,1.171011e+002
1.703355e+003,1.676279e+002
1.705284e+003,1.810146e+002
1.707212e+003,2.507681e+002
1.709141e+003,3.464614e+002
1.711069e+003,4.217695e+002
1.712998e+003,5.746006e+002
1.714926e+003,7.293457e+002
1.716854e+003,9.193223e+002
1.718783e+003,1.150639e+003
1.720711e+003,1.467185e+003
1.722640e+003,1.902917e+003
1.724568e+003,2.321047e+003
1.726497e+003,2.422737e+003
1.728425e+003,2.084308e+003
1.730354e+003,1.590524e+003
1.732282e+003,1.272703e+003
1.734211e+003,1.064893e+003
1.736139e+003,8.365459e+002
1.738068e+003,7.018486e+002
1.739996e+003,5.986763e+002
1.741925e+003,4.856475e+002
1.743853e+003,3.911792e+002
1.745781e+003,3.178799e+002
1.747710e+003,2.543052e+002
1.749638e+003,2.042881e+002
1.751567e+003,1.583511e+002
1.753495e+003,1.228345e+002
1.755424e+003,1.166724e+002
1.757352e+003,9.886230e+001
1.759281e+003,1.045688e+002
1.761209e+003,8.062988e+001
1.763138e+003,7.685205e+001
1.765066e+003,1.066367e+002
1.766995e+003,7.310107e+001
1.768923e+003,5.551709e+001
1.770852e+003,4.393848e+001
1.772780e+003,6.529736e+001
1.774708e+003,3.070996e+001
1.776637e+003,5.646191e+001
1.778565e+003,7.139941e+001
1.780494e+003,3.669043e+001
1.782422e+003,4.523193e+001
1.784351e+003,3.441846e+001
1.786279e+003,3.294922e+001
1.788208e+003,3.737842e+001
1.790136e+003,7.123047e+000
1.792065e+003,-1.522314e+001
1.793993e+003,4.583008e+000
1.795922e+003,1.305176e+000
1.797850e+003,-4.095703e+000
1.799779e+003,6.216797e+000
1.801707e+003,-4.479492e+000
1.803635e+003,-1.668652e+001
1.805564e+003,6.988770e+000
1.807492e+003,2.829492e+001
1.809421e+003,1.448193e+001
1.811349e+003,-5.859375e+000
1.813278e+003,-1.300098e+001
1.815206e+003,3.301758e+000
1.817135e+003,4.585840e+001
1.819063e+003,3.224805e+001
1.820992e+003,-3.608887e+000
1.822920e+003,1.416504e+000
1.824849e+003,2.859131e+001
1.826777e+003,1.104248e+001
1.828706e+003,-2.268066e+000
1.830634e+003,1.520850e+001
1.832563e+003,2.641650e+001
1.834491e+003,1.503271e+001
1.836419e+003,2.185547e+001
1.838348e+003,3.251611e+001
1.840276e+003,5.478516e+000
1.842205e+003,7.347656e+000
1.844133e+003,2.624121e+001
1.846062e+003,1.477344e+001
1.847990e+003,1.000830e+001
1.849919e+003,1.047314e+001
1.851847e+003,-1.843750e+000
1.853776e+003,-1.919434e+000
1.855704e+003,-1.570898e+001
1.857633e+003,2.072754e+000
1.859561e+003,1.969482e+001
1.861490e+003,8.518066e+000
1.863418e+003,-9.841309e+000
1.865346e+003,-1.035303e+001
1.867275e+003,2.146143e+001
1.869203e+003,4.171094e+001
1.871132e+003,1.419775e+001
1.873060e+003,2.011719e-001
1.874989e+003,-1.734619e+001
1.876917e+003,3.119873e+001
1.878846e+003,-4.883301e+000
1.880774e+003,-1.987354e+001
1.882703e+003,-2.519336e+001
1.884631e+003,3.444238e+001
1.886560e+003,3.721484e+001
1.888488e+003,1.871631e+001
1.890417e+003,7.303711e+000
1.892345e+003,2.011719e-001
1.894273e+003,1.013037e+001
1.896202e+003,9.658691e+000
1.898130e+003,-1.598486e+001
1.900059e+003,-2.471582e+001
1.901987e+003,9.823242e+000
1.903916e+003,3.785059e+001
1.905844e+003,2.418359e+001
1.907773e+003,1.797900e+001
1.909701e+003,4.722656e+000
1.911630e+003,2.521826e+001
1.913558e+003,-3.390625e+000
1.915487e+003,2.727539e+000
1.917415e+003,4.102051e+000
1.919344e+003,1.311865e+001
1.921272e+003,2.667773e+001
1.923200e+003,3.465332e+000
1.925129e+003,-3.232471e+001
1.927057e+003,-4.399023e+001
1.928986e+003,-2.287256e+001
1.930914e+003,8.783203e+000
1.932843e+003,2.637598e+001
1.934771e+003,1.025391e+001
1.936700e+003,3.636670e+001
1.938628e+003,3.560938e+001
1.940557e+003,6.699658e+001
1.942485e+003,3.772852e+001
1.944414e+003,1.666016e+000
1.946342e+003,-4.900879e+000
1.948271e+003,-1.949707e+000
1.950199e+003,1.016602e+001
1.952127e+003,-6.938477e-001
1.954056e+003,-3.825049e+001
1.955984e+003,-3.231299e+001
1.957913e+003,-1.379492e+001
1.959841e+003,-2.184229e+001
1.961770e+003,-2.300195e+001
1.963698e+003,-1.414209e+001
1.965627e+003,1.972656e+000
1.967555e+003,-1.450000e+001
1.969484e+003,-4.534082e+001
1.971412e+003,-2.064600e+001
1.973341e+003,1.323779e+001
1.975269e+003,-1.127930e+000
1.977198e+003,-1.035889e+001
1.979126e+003,6.378418e+000
1.981054e+003,-3.951172e+000
1.982983e+003,-8.237793e+000
1.984911e+003,1.694531e+001
1.986840e+003,2.200879e+001
1.988768e+003,1.381201e+001
1.990697e+003,2.717090e+001
1.992625e+003,2.130371e+000
1.994554e+003,-3.361133e+001
1.996482e+003,-3.496582e+001
1.998411e+003,-2.141797e+001
2.000339e+003,-1.693945e+001
2.002268e+003,-1.711230e+001
2.004196e+003,-4.514648e+000
2.006125e+003,-1.979004e+000
2.008053e+003,-1.969043e+001
2.009981e+003,-2.008643e+001
2.011910e+003,-3.154443e+001
2.013838e+003,-9.712891e+000
2.015767e+003,-7.321289e+000
2.017695e+003,-2.435596e+001
2.019624e+003,-7.566895e+000
2.021552e+003,-5.418945e+000
2.023481e+003,-5.800781e+000
2.025409e+003,2.880371e+000
2.027338e+003,1.760400e+001
2.029266e+003,2.226416e+001
2.031195e+003,5.240234e+000
2.033123e+003,-3.001953e+000
2.035052e+003,1.402588e+001
2.036980e+003,2.158691e+001
2.038908e+003,1.586426e+000
2.040837e+003,1.125146e+001
2.042765e+003,3.834570e+001
2.044694e+003,4.262695e+001
2.046622e+003,3.562207e+001
2.048551e+003,9.340332e+000
2.050479e+003,1.013135e+001
2.052408e+003,2.067578e+001
2.054336e+003,7.971191e+000
2.056265e+003,5.419434e+000
2.058193e+003,-6.030273e-001
2.060122e+003,7.062988e+000
2.062050e+003,3.460938e+000
2.063979e+003,-1.483643e+001
2.065907e+003,9.132813e+000
2.067835e+003,-2.783203e-002
2.069764e+003,1.119629e+001
2.071692e+003,-5.453613e+000
2.073621e+003,3.787500e+001
2.075549e+003,2.583887e+001
2.077478e+003,7.325684e+000
2.079406e+003,2.310107e+001
2.081335e+003,2.734033e+001
2.083263e+003,-2.087500e+001
2.085192e+003,-3.741895e+001
2.087120e+003,-1.801025e+001
2.089049e+003,-6.460938e+000
2.090977e+003,8.105469e+000
2.092906e+003,1.004639e+001
2.094834e+003,-3.958496e+000
2.096762e+003,-2.444922e+001
2.098691e+003,-1.274219e+001
2.100619e+003,-1.004541e+001
2.102548e+003,-2.718311e+001
2.104476e+003,1.162793e+001
2.106405e+003,5.652344e+000
2.108333e+003,-1.089697e+001
2.110262e+003,1.564355e+001
2.112190e+003,1.766016e+001
2.114119e+003,2.791016e+000
2.116047e+003,1.180469e+001
2.117976e+003,1.172119e+001
2.119904e+003,8.942383e+000
2.121833e+003,-1.988916e+001
2.123761e+003,-2.350146e+001
2.125689e+003,-3.209961e+001
2.127618e+003,-1.968848e+001
2.129546e+003,9.478516e+000
2.131475e+003,9.319824e+000
2.133403e+003,-8.735352e-001
2.135332e+003,-2.456641e+001
2.137260e+003,-3.524121e+001
2.139189e+003,-6.240723e+000
2.141117e+003,2.404492e+001
2.143046e+003,1.715967e+001
2.144974e+003,2.752930e+000
2.146903e+003,3.818848e+000
2.148831e+003,1.519727e+001
2.150760e+003,-1.369482e+001
2.152688e+003,2.547363e+000
2.154616e+003,-2.208301e+001
2.156545e+003,1.754883e+000
2.158473e+003,4.326172e+000
2.160402e+003,2.726367e+001
2.162330e+003,9.575684e+000
2.164259e+003,4.807617e+000
2.166187e+003,1.490967e+001
2.168116e+003,5.035645e+000
2.170044e+003,-2.868164e+000
2.171973e+003,-4.604492e-001
2.173901e+003,3.262695e+000
2.175830e+003,-3.624023e+000
2.177758e+003,5.470703e+000
2.179687e+003,3.234033e+001
2.181615e+003,1.484033e+001
2.183543e+003,1.298682e+001
2.185472e+003,5.323242e+000
2.187400e+003,-2.270557e+001
2.189329e+003,-1.707031e+000
2.191257e+003,3.206348e+001
2.193186e+003,1.831201e+001
2.195114e+003,-1.772949e+001
2.197043e+003,-3.968018e+001
2.198971e+003,-2.197900e+001
2.200900e+003,-1.550879e+001
2.202828e+003,-2.221387e+001
2.204757e+003,-1.214551e+001
2.206685e+003,3.418945e+000
2.208614e+003,3.481445e+000
2.210542e+003,2.785645e+000
2.212470e+003,-7.152344e+000
2.214399e+003,2.272656e+001
2.216327e+003,8.115234e+000
2.218256e+003,3.818359e+000
2.220184e+003,9.949707e+000
2.222113e+003,-2.124414e+001
2.224041e+003,-2.520947e+001
2.225970e+003,-1.371143e+001
2.227898e+003,-7.821777e+000
2.229827e+003,-1.071582e+001
2.231755e+003,-2.264355e+001
2.233684e+003,-1.266113e+000
2.235612e+003,2.412842e+001
2.237541e+003,9.951660e+000
2.239469e+003,6.991699e+000
2.241397e+003,1.589258e+001
2.243326e+003,1.221045e+001
2.245254e+003,-5.837891e+000
2.247183e+003,1.916943e+001
2.249111e+003,3.858643e+001
2.251040e+003,-2.361279e+001
2.252968e+003,-2.418896e+001
2.254897e+003,1.034375e+001
2.256825e+003,-2.261963e+001
2.258754e+003,2.196777e+000
2.260682e+003,-7.202148e+000
2.262611e+003,-1.098145e+001
2.264539e+003,2.773438e+000
2.266468e+003,1.135010e+001
2.268396e+003,-1.049561e+001
2.270324e+003,-1.028125e+001
2.272253e+003,4.607910e+000
2.274181e+003,7.078125e+000
2.276110e+003,2.090967e+001
2.278038e+003,1.787207e+001
2.279967e+003,1.614941e+001
2.281895e+003,-1.585547e+001
2.283824e+003,-7.678223e+000
2.285752e+003,-2.691406e+001
2.287681e+003,5.664063e-001
2.289609e+003,-9.888672e+000
2.291538e+003,1.002588e+001
2.293466e+003,2.642383e+001
2.295395e+003,-4.472656e-001
2.297323e+003,-8.949707e+000
2.299251e+003,2.740723e+000
2.301180e+003,-1.596680e+000
2.303108e+003,-7.815918e+000
2.305037e+003,-8.840332e+000
2.306965e+003,-1.178711e+001
2.308894e+003,-1.204443e+001
2.310822e+003,-1.673486e+001
2.312751e+003,4.867334e+001
2.314679e+003,1.511182e+001
2.316608e+003,2.526465e+001
2.318536e+003,9.879395e+000
2.320465e+003,3.373535e+000
2.322393e+003,-2.564941e+000
2.324322e+003,8.687500e+000
2.326250e+003,2.345068e+001
2.328178e+003,-3.142578e+000
2.330107e+003,-2.726123e+001
2.332035e+003,-4.519531e+000
2.333964e+003,9.441895e+000
2.335892e+003,1.308740e+001
2.337821e+003,-2.670947e+001
2.339749e+003,2.170801e+001
2.341678e+003,2.620508e+001
2.343606e+003,2.839355e+000
2.345535e+003,-1.256836e+001
2.347463e+003,-2.659766e+001
2.349392e+003,-1.513623e+001
2.351320e+003,-1.418799e+001
2.353249e+003,-2.196777e+001
2.355177e+003,4.539063e+000
2.357105e+003,1.924121e+001
2.359034e+003,1.864990e+001
2.360962e+003,2.916504e+001
2.362891e+003,-1.367041e+001
2.364819e+003,9.269531e+000
2.366748e+003,3.930859e+001
2.368676e+003,1.902930e+001
2.370605e+003,-7.584473e+000
2.372533e+003,1.518555e+000
2.374462e+003,3.109570e+001
2.376390e+003,4.596143e+001
2.378319e+003,3.822754e+001
2.380247e+003,2.725879e+001
2.382176e+003,4.572266e+000
2.384104e+003,-1.819141e+001
2.386032e+003,-9.628418e+000
2.387961e+003,-7.002930e+000
2.389889e+003,-2.011523e+001
2.391818e+003,2.585254e+001
2.393746e+003,-4.210449e+000
2.395675e+003,2.667041e+001
2.397603e+003,1.784863e+001
2.399532e+003,2.031982e+001
2.401460e+003,2.220068e+001
2.403389e+003,1.950391e+001
2.405317e+003,8.619629e+000
2.407246e+003,-7.529297e-001
2.409174e+003,1.006641e+001
2.411103e+003,1.319092e+001
2.413031e+003,2.516211e+001
2.414959e+003,6.434570e+000
2.416888e+003,8.535156e-001
2.418816e+003,-5.168945e+000
2.420745e+003,1.725244e+001
2.422673e+003,7.143555e+000
2.424602e+003,-1.712402e+000
2.426530e+003,9.667969e-001
2.428459e+003,1.382324e+001
2.430387e+003,7.968750e+000
2.432316e+003,-2.236816e+000
2.434244e+003,-1.550195e+001
2.436173e+003,-3.653711e+001
2.438101e+003,-1.807861e+001
2.440030e+003,-1.753906e+000
2.441958e+003,-2.155371e+001
2.443886e+003,-1.976953e+001
2.445815e+003,-1.690283e+001
2.447743e+003,-7.793457e+000
2.449672e+003,-6.040039e-001
2.451600e+003,2.848633e+000
2.453529e+003,-1.738770e+000
2.455457e+003,3.441895e+000
2.457386e+003,4.559570e+000
2.459314e+003,-4.697412e+001
2.461243e+003,1.586475e+001
2.463171e+003,5.532715e+000
2.465100e+003,-7.915527e+000
2.467028e+003,5.638672e+000
2.468957e+003,2.006592e+001
2.470885e+003,-1.124756e+001
2.472813e+003,-1.599023e+001
2.474742e+003,5.698242e+000
2.476670e+003,1.929541e+001
2.478599e+003,4.302100e+001
2.480527e+003,3.660205e+001
2.482456e+003,-1.284180e+000
2.484384e+003,-3.405762e+000
2.486313e+003,-9.501465e+000
2.488241e+003,-1.401221e+001
2.490170e+003,-6.984863e+000
2.492098e+003,1.670166e+001
2.494027e+003,1.397607e+001
2.495955e+003,2.578125e-001
2.497884e+003,2.545459e+001
2.499812e+003,-1.246387e+001
2.501740e+003,-1.641699e+001
2.503669e+003,1.419678e+001
2.505597e+003,2.435547e+000
2.507526e+003,1.035400e+001
2.509454e+003,3.326758e+001
2.511383e+003,3.619238e+001
2.513311e+003,3.195020e+001
2.515240e+003,2.884033e+001
2.517168e+003,2.366260e+001
2.519097e+003,-2.587109e+001
2.521025e+003,-1.873096e+001
2.522954e+003,-6.150879e+000
2.524882e+003,6.821777e+000
2.526811e+003,-1.163623e+001
2.528739e+003,-2.469385e+001
2.530667e+003,-2.227686e+001
2.532596e+003,-1.135156e+001
2.534524e+003,5.492188e+000
2.536453e+003,1.346924e+001
2.538381e+003,6.156738e+000
2.540310e+003,-1.025977e+001
2.542238e+003,-1.404297e+001
2.544167e+003,-1.597168e+001
2.546095e+003,-4.255176e+001
2.548024e+003,-4.620117e+000
2.549952e+003,1.049609e+001
2.551881e+003,3.641602e+000
2.553809e+003,-1.997070e-001
2.555738e+003,-1.645996e+000
2.557666e+003,-1.766602e+000
2.559594e+003,-3.716650e+001
2.561523e+003,9.078613e+000
2.563451e+003,1.522217e+001
2.565380e+003,2.261377e+001
2.567308e+003,-1.437500e+001
2.569237e+003,1.118164e-001
2.571165e+003,-1.725098e+001
2.573094e+003,8.968262e+000
2.575022e+003,3.852539e+000
2.576951e+003,7.825195e+000
2.578879e+003,1.972998e+001
2.580808e+003,2.340723e+001
2.582736e+003,1.301953e+001
2.584665e+003,1.220410e+001
2.586593e+003,2.490137e+001
2.588521e+003,3.899463e+001
2.590450e+003,5.367578e+001
2.592378e+003,2.923340e+000
2.594307e+003,-4.854980e+000
2.596235e+003,3.229541e+001
2.598164e+003,1.245996e+001
2.600092e+003,4.224121e+000
2.602021e+003,1.339014e+001
2.603949e+003,1.853662e+001
2.605878e+003,2.202783e+001
2.607806e+003,2.043555e+001
2.609735e+003,2.145117e+001
2.611663e+003,-7.540039e+000
2.613592e+003,-4.287793e+001
2.615520e+003,-1.616309e+001
2.617448e+003,1.405029e+001
2.619377e+003,1.986084e+001
2.621305e+003,2.894043e+000
2.623234e+003,1.138281e+001
2.625162e+003,1.556592e+001
2.627091e+003,5.219727e-001
2.629019e+003,-1.451709e+001
2.630948e+003,6.559570e+000
2.632876e+003,1.782422e+001
2.634805e+003,-5.576172e+000
2.636733e+003,2.002441e+000
2.638662e+003,-5.946289e+000
2.640590e+003,1.184326e+001
2.642519e+003,-1.735254e+001
2.644447e+003,1.130371e+000
2.646375e+003,-2.021484e+001
2.648304e+003,-1.198730e+000
2.650232e+003,-3.307422e+001
2.652161e+003,-4.356348e+001
2.654089e+003,-3.650391e+001
2.656018e+003,-2.312061e+001
2.657946e+003,-1.958545e+001
2.659875e+003,-4.593115e+001
2.661803e+003,-3.085107e+001
2.663732e+003,-7.725586e+000
2.665660e+003,-4.935596e+001
2.667589e+003,-2.880469e+001
2.669517e+003,-2.649072e+001
2.671446e+003,-3.888818e+001
2.673374e+003,-4.607666e+001
2.675302e+003,-2.557666e+001
2.677231e+003,-4.054541e+001
2.679159e+003,-3.773584e+001
2.681088e+003,-1.047412e+001
2.683016e+003,-3.835400e+001
2.684945e+003,-4.893945e+001
2.686873e+003,-2.266748e+001
2.688802e+003,-2.332031e+001
2.690730e+003,-3.138867e+001
2.692659e+003,-1.890625e+001
2.694587e+003,-3.407080e+001
2.696516e+003,-2.275732e+001
2.698444e+003,-4.793408e+001
2.700373e+003,-3.689453e+001
2.702301e+003,-2.849609e+001
2.704229e+003,-5.574658e+001
2.706158e+003,-3.988721e+001
2.708086e+003,-4.402148e+001
2.710015e+003,-2.772510e+001
2.711943e+003,-5.396387e+001
2.713872e+003,-3.894287e+001
2.715800e+003,-2.665137e+001
2.717729e+003,-3.481836e+001
2.719657e+003,-5.874463e+001
2.721586e+003,-3.806592e+001
2.723514e+003,-3.415869e+001
2.725443e+003,-5.681299e+001
2.727371e+003,-3.033008e+001
2.729300e+003,-2.872656e+001
2.731228e+003,-5.066748e+001
2.733156e+003,-5.950244e+001
2.735085e+003,-2.612793e+001
2.737013e+003,-4.916504e+001
2.738942e+003,-8.507422e+001
2.740870e+003,-2.083057e+001
2.742799e+003,-6.117090e+001
2.744727e+003,-1.009194e+002
2.746656e+003,-6.644385e+001
2.748584e+003,-6.411523e+001
2.750513e+003,-7.829443e+001
2.752441e+003,-6.830127e+001
2.754370e+003,-7.677393e+001
2.756298e+003,-8.293262e+001
2.758227e+003,-6.022998e+001
2.760155e+003,-8.537305e+001
2.762083e+003,-6.348730e+001
2.764012e+003,-5.477734e+001
2.765940e+003,-4.334912e+001
2.767869e+003,-7.299316e+001
2.769797e+003,-7.766699e+001
2.771726e+003,-5.217188e+001
2.773654e+003,-6.547266e+001
2.775583e+003,-9.886621e+001
2.777511e+003,-1.378838e+002
2.779440e+003,-8.262646e+001
2.781368e+003,-7.400391e+001
2.783297e+003,-4.859229e+001
2.785225e+003,-2.380176e+001
2.787154e+003,-8.845654e+001
2.789082e+003,-8.837500e+001
2.791010e+003,-1.034326e+002
2.792939e+003,-1.100981e+002
2.794867e+003,-8.542725e+001
2.796796e+003,-6.830322e+001
2.798724e+003,-7.726172e+001
2.800653e+003,-4.215332e+001
2.802581e+003,-6.400293e+001
2.804510e+003,-6.337695e+001
2.806438e+003,-1.252910e+002
2.808367e+003,-4.180469e+001
2.810295e+003,-9.708496e+000
2.812224e+003,-6.160010e+001
2.814152e+003,-6.891357e+001
2.816081e+003,-8.624512e+001
2.818009e+003,-5.713379e+001
2.819938e+003,-5.201611e+001
2.821866e+003,-6.712256e+001
2.823794e+003,-6.616113e+001
2.825723e+003,-7.313525e+001
2.827651e+003,-1.200986e+002
2.829580e+003,-1.037354e+002
2.831508e+003,-8.718164e+001
2.833437e+003,-1.024512e+002
2.835365e+003,-6.914063e+001
2.837294e+003,-1.414150e+002
2.839222e+003,-1.324727e+002
2.841151e+003,-1.535835e+002
2.843079e+003,-1.600854e+002
2.845008e+003,-1.115420e+002
2.846936e+003,-1.189692e+002
2.848865e+003,-1.460742e+002
2.850793e+003,-1.081660e+002
2.852721e+003,-1.160571e+002
2.854650e+003,-1.292881e+002
2.856578e+003,-1.380776e+002
2.858507e+003,-1.277573e+002
2.860435e+003,-1.585210e+002
2.862364e+003,-1.069434e+002
2.864292e+003,-1.355361e+002
2.866221e+003,-1.482646e+002
2.868149e+003,-1.703955e+002
2.870078e+003,-1.527671e+002
2.872006e+003,-1.180288e+002
2.873935e+003,-1.246343e+002
2.875863e+003,-1.142803e+002
2.877792e+003,-1.372896e+002
2.879720e+003,-1.291006e+002
2.881648e+003,-1.024214e+002
2.883577e+003,-7.043799e+001
2.885505e+003,-2.929443e+001
2.887434e+003,-2.018945e+001
2.889362e+003,-6.208154e+001
2.891291e+003,-4.160791e+001
2.893219e+003,-7.558936e+001
2.895148e+003,-9.865137e+001
2.897076e+003,-6.540088e+001
2.899005e+003,-2.739355e+001
2.900933e+003,4.752441e+000
2.902862e+003,4.208496e+000
2.904790e+003,5.079492e+001
2.906719e+003,3.637256e+001
2.908647e+003,4.903027e+001
2.910575e+003,2.602637e+001
2.912504e+003,-2.307129e+000
2.914432e+003,-2.351270e+001
2.916361e+003,-5.677148e+001
2.918289e+003,-6.929639e+001
2.920218e+003,-7.496436e+001
2.922146e+003,-4.014746e+001
2.924075e+003,-2.598193e+001
2.926003e+003,-3.153027e+001
2.927932e+003,-7.380176e+001
2.929860e+003,-2.131934e+001
2.931789e+003,-3.490186e+001
2.933717e+003,-1.668896e+001
2.935646e+003,-2.154102e+001
2.937574e+003,-1.845654e+001
2.939502e+003,2.369482e+001
2.941431e+003,1.915967e+001
2.943359e+003,4.609570e+001
2.945288e+003,9.545166e+001
2.947216e+003,1.488711e+002
2.949145e+003,1.535630e+002
2.951073e+003,1.456006e+002
2.953002e+003,1.761411e+002
2.954930e+003,1.992275e+002
2.956859e+003,2.839312e+002
2.958787e+003,3.433633e+002
2.960716e+003,3.618379e+002
2.962644e+003,4.012266e+002
2.964573e+003,4.606729e+002
2.966501e+003,4.669453e+002
2.968429e+003,4.323979e+002
2.970358e+003,3.433896e+002
2.972286e+003,2.591924e+002
2.974215e+003,2.698662e+002
2.976143e+003,2.168242e+002
2.978072e+003,1.825547e+002
2.980000e+003,1.367197e+002
2.981929e+003,1.196895e+002
2.983857e+003,1.184927e+002
2.985786e+003,8.771924e+001
2.987714e+003,6.412549e+001
2.989643e+003,1.096499e+002
2.991571e+003,1.262393e+002
2.993500e+003,1.403516e+002
2.995428e+003,1.916870e+002
2.997356e+003,2.235522e+002
2.999285e+003,2.234302e+002
3.001213e+003,2.334497e+002
3.003142e+003,1.837666e+002
3.005070e+003,1.855586e+002
3.006999e+003,1.741270e+002
3.008927e+003,1.680630e+002
3.010856e+003,1.511699e+002
3.012784e+003,8.755469e+001
3.014713e+003,7.887988e+001
3.016641e+003,3.220459e+001
3.018570e+003,-1.651904e+001
3.020498e+003,-4.326367e+001
3.022427e+003,-2.843018e+001
3.024355e+003,-2.585303e+001
3.026283e+003,2.257031e+001
3.028212e+003,1.747900e+001
3.030140e+003,1.160938e+001
3.032069e+003,-1.260352e+001
3.033997e+003,-8.575781e+001
3.035926e+003,-1.004644e+002
3.037854e+003,-6.957080e+001
3.039783e+003,-6.982568e+001
3.041711e+003,-1.836279e+001
3.043640e+003,-4.991797e+001
3.045568e+003,9.987305e+000
3.047497e+003,-1.244043e+001
3.049425e+003,6.347656e-002
3.051354e+003,2.788086e+000
3.053282e+003,2.727539e+000
3.055210e+003,1.004883e+000
3.057139e+003,-9.332031e+000
3.059067e+003,2.963672e+001
3.060996e+003,8.583203e+001
3.062924e+003,1.421221e+002
3.064853e+003,2.274277e+002
3.066781e+003,2.705234e+002
3.068710e+003,3.900020e+002
3.070638e+003,4.892139e+002
3.072567e+003,5.300313e+002
3.074495e+003,6.297178e+002
3.076424e+003,7.969219e+002
3.078352e+003,1.060737e+003
3.080281e+003,1.346623e+003
3.082209e+003,1.372665e+003
3.084137e+003,1.138113e+003
3.086066e+003,7.860078e+002
3.087994e+003,5.010820e+002
3.089923e+003,3.586045e+002
3.091851e+003,2.898057e+002
3.093780e+003,2.273467e+002
3.095708e+003,1.840215e+002
3.097637e+003,1.583369e+002
3.099565e+003,1.599277e+002
3.101494e+003,1.066514e+002
3.103422e+003,4.489355e+001
3.105351e+003,5.646582e+001
3.107279e+003,4.919629e+001
3.109208e+003,-4.730469e+000
3.111136e+003,2.045996e+001
3.113064e+003,2.412305e+001
3.114993e+003,2.396289e+001
3.116921e+003,2.330273e+001
3.118850e+003,1.762695e+001
3.120778e+003,1.068555e+001
3.122707e+003,1.777832e+001
3.124635e+003,2.326953e+001
3.126564e+003,3.347559e+001
3.128492e+003,6.300293e+001
3.130421e+003,5.130566e+001
3.132349e+003,4.732129e+001
3.134278e+003,9.559668e+001
3.136206e+003,3.370996e+001
3.138135e+003,1.580078e+001
3.140063e+003,-2.591309e+001
3.141991e+003,2.271582e+001
3.143920e+003,4.268262e+001
3.145848e+003,2.647070e+001
3.147777e+003,4.541211e+001
3.149705e+003,-1.094336e+001
3.151634e+003,-1.101270e+001
3.153562e+003,2.831445e+001
3.155491e+003,1.613086e+001
3.157419e+003,1.142969e+001
3.159348e+003,-6.613281e+000
3.161276e+003,4.615234e+000
3.163205e+003,2.236328e+001
3.165133e+003,3.340430e+001
3.167062e+003,7.022461e+000
3.168990e+003,-9.301758e+000
3.170918e+003,-9.029297e+000
3.172847e+003,-5.081055e+000
3.174775e+003,4.226855e+001
3.176704e+003,3.192676e+001
3.178632e+003,4.334668e+001
3.180561e+003,7.865234e+000
3.182489e+003,3.590527e+001
3.184418e+003,4.777051e+001
3.186346e+003,1.801172e+001
3.188275e+003,2.682617e+001
3.190203e+003,5.281641e+001
3.192132e+003,8.236328e+001
3.194060e+003,5.885742e+000
3.195989e+003,6.074121e+001
3.197917e+003,2.105859e+001
3.199845e+003,6.174609e+001
3.201774e+003,2.158496e+001
3.203702e+003,7.145117e+001
3.205631e+003,7.473926e+001
3.207559e+003,9.351660e+001
3.209488e+003,1.200742e+002
3.211416e+003,4.754297e+001
3.213345e+003,5.858203e+001
3.215273e+003,7.746289e+001
3.217202e+003,6.412109e+000
3.219130e+003,2.844434e+001
3.221059e+003,9.876953e+001
3.222987e+003,1.220752e+002
3.224916e+003,1.082061e+002
3.226844e+003,1.084424e+002
3.228772e+003,1.422910e+002
3.230701e+003,1.046318e+002
3.232629e+003,9.653418e+001
3.234558e+003,9.941113e+001
3.236486e+003,4.458203e+001
3.238415e+003,9.531152e+001
3.240343e+003,6.679297e+001
3.242272e+003,8.889648e+000
3.244200e+003,5.838867e+001
3.246129e+003,9.293652e+001
3.248057e+003,8.993750e+001
3.249986e+003,9.579102e+001
3.251914e+003,6.464355e+001
3.253843e+003,4.591895e+001
3.255771e+003,3.095215e+001
3.257699e+003,2.776758e+001
3.259628e+003,3.068555e+001
3.261556e+003,8.640332e+001
3.263485e+003,9.118359e+001
3.265413e+003,-3.761719e+000
3.267342e+003,6.117676e+001
3.269270e+003,3.139941e+001
3.271199e+003,2.712402e+001
3.273127e+003,5.006250e+001
3.275056e+003,4.973340e+001
3.276984e+003,3.789551e+001
3.278913e+003,1.916211e+001
3.280841e+003,4.930469e+001
3.282770e+003,3.933203e+001
3.284698e+003,6.334961e+000
3.286626e+003,2.939355e+001
3.288555e+003,-6.431641e+000
3.290483e+003,5.366895e+001
3.292412e+003,5.797852e+001
3.294340e+003,1.344531e+001
3.296269e+003,5.831055e+000
3.298197e+003,4.439648e+001
3.300126e+003,5.808594e+001
3.302054e+003,5.193164e+001
3.303983e+003,6.074023e+001
3.305911e+003,3.931641e+000
3.307840e+003,4.710352e+001
3.309768e+003,4.248828e+001
3.311697e+003,4.172754e+001
3.313625e+003,2.452441e+001
3.315553e+003,1.998730e+001
3.317482e+003,5.576367e+001
3.319410e+003,1.282715e+001
3.321339e+003,1.735645e+001
3.323267e+003,1.580566e+001
3.325196e+003,3.398145e+001
3.327124e+003,7.668262e+001
3.329053e+003,5.692090e+001
3.330981e+003,2.773926e+001
3.332910e+003,4.517480e+001
3.334838e+003,2.908008e+001
3.336767e+003,-1.411426e+001
3.338695e+003,2.800879e+001
3.340624e+003,-3.138770e+001
3.342552e+003,-1.312500e+001
3.344480e+003,2.334277e+001
3.346409e+003,-1.012891e+001
3.348337e+003,-4.545996e+001
3.350266e+003,-9.295605e+001
3.352194e+003,-1.563965e+001
3.354123e+003,2.334082e+001
3.356051e+003,-1.326660e+001
3.357980e+003,8.301758e+000
3.359908e+003,5.337891e+000
3.361837e+003,-2.515918e+001
3.363765e+003,-1.984473e+001
3.365694e+003,-3.993750e+001
3.367622e+003,3.199219e+000
3.369551e+003,-2.309766e+001
3.371479e+003,-8.316504e+001
3.373407e+003,-5.754004e+001
3.375336e+003,-6.519434e+001
3.377264e+003,-6.084961e+000
3.379193e+003,-3.753613e+001
3.381121e+003,-8.312988e+001
3.383050e+003,-4.487500e+001
3.384978e+003,5.835938e+000
3.386907e+003,-4.614551e+001
3.388835e+003,-9.674121e+001
3.390764e+003,-2.544824e+001
3.392692e+003,-6.978613e+001
3.394621e+003,-7.340234e+001
3.396549e+003,-7.721777e+001
3.398478e+003,-1.410957e+002
3.400406e+003,-1.530176e+002
