5.065916e+001,1.862851e+004
5.258762e+001,1.840093e+004
5.451609e+001,1.819591e+004
5.644456e+001,1.802821e+004
5.837302e+001,1.786799e+004
6.030149e+001,1.766195e+004
6.222996e+001,1.736619e+004
6.415842e+001,1.703134e+004
6.608689e+001,1.666572e+004
6.801536e+001,1.630506e+004
6.994382e+001,1.601192e+004
7.187229e+001,1.565051e+004
7.380076e+001,1.522220e+004
7.572923e+001,1.474206e+004
7.765769e+001,1.422415e+004
7.958616e+001,1.366288e+004
8.151463e+001,1.309334e+004
8.344309e+001,1.259092e+004
8.537156e+001,1.211146e+004
8.730003e+001,1.156860e+004
8.922849e+001,1.102104e+004
9.115696e+001,1.054202e+004
9.308543e+001,1.002145e+004
9.501389e+001,9.444884e+003
9.694236e+001,8.911303e+003
9.887083e+001,8.380111e+003
1.007993e+002,7.875985e+003
1.027278e+002,7.367483e+003
1.046562e+002,6.838005e+003
1.065847e+002,6.322304e+003
1.085132e+002,5.846247e+003
1.104416e+002,5.390288e+003
1.123701e+002,4.971835e+003
1.142986e+002,4.615519e+003
1.162270e+002,4.320903e+003
1.181555e+002,4.015939e+003
1.200840e+002,3.721491e+003
1.220124e+002,3.454420e+003
1.239409e+002,3.223106e+003
1.258694e+002,3.021364e+003
1.277978e+002,2.843281e+003
1.297263e+002,2.679539e+003
1.316548e+002,2.525284e+003
1.335832e+002,2.381596e+003
1.355117e+002,2.254039e+003
1.374402e+002,2.138239e+003
1.393686e+002,2.059582e+003
1.412971e+002,2.006903e+003
1.432256e+002,1.900305e+003
1.451540e+002,1.814838e+003
1.470825e+002,1.766527e+003
1.490110e+002,1.729538e+003
1.509394e+002,1.681580e+003
1.528679e+002,1.649016e+003
1.547964e+002,1.628202e+003
1.567248e+002,1.601832e+003
1.586533e+002,1.571827e+003
1.605818e+002,1.549354e+003
1.625102e+002,1.543490e+003
1.644387e+002,1.525950e+003
1.663672e+002,1.493714e+003
1.682956e+002,1.456636e+003
1.702241e+002,1.428695e+003
1.721526e+002,1.402618e+003
1.740810e+002,1.375998e+003
1.760095e+002,1.356274e+003
1.779380e+002,1.336813e+003
1.798664e+002,1.302691e+003
1.817949e+002,1.278282e+003
1.837234e+002,1.267964e+003
1.856518e+002,1.250982e+003
1.875803e+002,1.225829e+003
1.895088e+002,1.214167e+003
1.914372e+002,1.207574e+003
1.933657e+002,1.198885e+003
1.952942e+002,1.194400e+003
1.972226e+002,1.201965e+003
1.991511e+002,1.226605e+003
2.010796e+002,1.256952e+003
2.030080e+002,1.281021e+003
2.049365e+002,1.302570e+003
2.068650e+002,1.327203e+003
2.087934e+002,1.356898e+003
2.107219e+002,1.386530e+003
2.126504e+002,1.427060e+003
2.145788e+002,1.460235e+003
2.165073e+002,1.476659e+003
2.184358e+002,1.494910e+003
2.203642e+002,1.504947e+003
2.222927e+002,1.491975e+003
2.242212e+002,1.458510e+003
2.261496e+002,1.414691e+003
2.280781e+002,1.373020e+003
2.300066e+002,1.265627e+003
2.319350e+002,1.181370e+003
2.338635e+002,1.107799e+003
2.357920e+002,1.018309e+003
2.377204e+002,9.209659e+002
2.396489e+002,8.357964e+002
2.415774e+002,7.573214e+002
2.435058e+002,6.926346e+002
2.454343e+002,6.479532e+002
2.473628e+002,6.202491e+002
2.492912e+002,5.806918e+002
2.512197e+002,5.609384e+002
2.531482e+002,5.460912e+002
2.550766e+002,5.283876e+002
2.570051e+002,5.368635e+002
2.589336e+002,5.193643e+002
2.608620e+002,5.075551e+002
2.627905e+002,5.022752e+002
2.647190e+002,4.966587e+002
2.666474e+002,4.861832e+002
2.685759e+002,4.882877e+002
2.705044e+002,4.853929e+002
2.724328e+002,4.845607e+002
2.743613e+002,4.867946e+002
2.762898e+002,4.766866e+002
2.782182e+002,4.689098e+002
2.801467e+002,4.655294e+002
2.820752e+002,4.622827e+002
2.840036e+002,4.580653e+002
2.859321e+002,4.566583e+002
2.878606e+002,4.464692e+002
2.897890e+002,4.310036e+002
2.917175e+002,4.171528e+002
2.936460e+002,4.113488e+002
2.955744e+002,4.157047e+002
2.975029e+002,4.102181e+002
2.994314e+002,4.023044e+002
3.013598e+002,3.989022e+002
3.032883e+002,4.013399e+002
3.052168e+002,4.048100e+002
3.071452e+002,3.980863e+002
3.090737e+002,4.043633e+002
3.110022e+002,4.057895e+002
3.129306e+002,4.022905e+002
3.148591e+002,4.040261e+002
3.167876e+002,4.038732e+002
3.187160e+002,4.066296e+002
3.206445e+002,4.143461e+002
3.225730e+002,4.179202e+002
3.245014e+002,4.125563e+002
3.264299e+002,4.199093e+002
3.283584e+002,4.180612e+002
3.302868e+002,4.176046e+002
3.322153e+002,4.168486e+002
3.341438e+002,4.139102e+002
3.360722e+002,4.146451e+002
3.380007e+002,4.106143e+002
3.399292e+002,4.125623e+002
3.418576e+002,4.207327e+002
3.437861e+002,4.246368e+002
3.457146e+002,4.087066e+002
3.476430e+002,4.077773e+002
3.495715e+002,4.077865e+002
3.515000e+002,4.066198e+002
3.534284e+002,4.001431e+002
3.553569e+002,3.858174e+002
3.572854e+002,3.819969e+002
3.592138e+002,4.011851e+002
3.611423e+002,4.108165e+002
3.630708e+002,4.067973e+002
3.649992e+002,4.030693e+002
3.669277e+002,4.102013e+002
3.688562e+002,4.166010e+002
3.707846e+002,4.288654e+002
3.727131e+002,4.396689e+002
3.746416e+002,4.416923e+002
3.765700e+002,4.379735e+002
3.784985e+002,4.628253e+002
3.804270e+002,4.762438e+002
3.823554e+002,4.822379e+002
3.842839e+002,4.888745e+002
3.862124e+002,4.988856e+002
3.881408e+002,5.125063e+002
3.900693e+002,5.224326e+002
3.919978e+002,5.314831e+002
3.939262e+002,5.420603e+002
3.958547e+002,5.533928e+002
3.977832e+002,5.579523e+002
3.997116e+002,5.710944e+002
4.016401e+002,6.012485e+002
4.035686e+002,6.216586e+002
4.054970e+002,6.180032e+002
4.074255e+002,6.127582e+002
4.093540e+002,6.018529e+002
4.112824e+002,5.665715e+002
4.132109e+002,5.384015e+002
4.151394e+002,5.306143e+002
4.170678e+002,5.300884e+002
4.189963e+002,5.124041e+002
4.209248e+002,4.955706e+002
4.228532e+002,4.856505e+002
4.247817e+002,4.772023e+002
4.267102e+002,4.667738e+002
4.286386e+002,4.648345e+002
4.305671e+002,4.680597e+002
4.324956e+002,4.632709e+002
4.344240e+002,4.567913e+002
4.363525e+002,4.541552e+002
4.382810e+002,4.541885e+002
4.402094e+002,4.488206e+002
4.421379e+002,4.465615e+002
4.440664e+002,4.375623e+002
4.459948e+002,4.296400e+002
4.479233e+002,4.291522e+002
4.498518e+002,4.196111e+002
4.517802e+002,4.216198e+002
4.537087e+002,4.176262e+002
4.556372e+002,4.043719e+002
4.575656e+002,3.911003e+002
4.594941e+002,3.911958e+002
4.614226e+002,3.913047e+002
4.633510e+002,3.997237e+002
4.652795e+002,4.021206e+002
4.672080e+002,3.927116e+002
4.691364e+002,3.793823e+002
4.710649e+002,3.840306e+002
4.729934e+002,3.895767e+002
4.749218e+002,3.913991e+002
4.768503e+002,3.900021e+002
4.787788e+002,3.880414e+002
4.807072e+002,3.866187e+002
4.826357e+002,3.769947e+002
4.845642e+002,3.858614e+002
4.864926e+002,3.779795e+002
4.884211e+002,3.734764e+002
4.903496e+002,3.872113e+002
4.922780e+002,3.950363e+002
4.942065e+002,3.951686e+002
4.961350e+002,3.927113e+002
4.980634e+002,3.932970e+002
4.999919e+002,3.959185e+002
5.019204e+002,3.969250e+002
5.038488e+002,3.974834e+002
5.057773e+002,4.016847e+002
5.077058e+002,4.030716e+002
5.096342e+002,4.053226e+002
5.115627e+002,4.112323e+002
5.134912e+002,4.178972e+002
5.154197e+002,4.124477e+002
5.173481e+002,4.048899e+002
5.192766e+002,4.118035e+002
5.212051e+002,4.272804e+002
5.231335e+002,4.364801e+002
5.250620e+002,4.301440e+002
5.269905e+002,4.338841e+002
5.289189e+002,4.519193e+002
5.308474e+002,4.664539e+002
5.327759e+002,4.692924e+002
5.347043e+002,4.675736e+002
5.366328e+002,4.827008e+002
5.385613e+002,5.005464e+002
5.404897e+002,5.028085e+002
5.424182e+002,4.967300e+002
5.443467e+002,4.891101e+002
5.462751e+002,4.819152e+002
5.482036e+002,4.760248e+002
5.501321e+002,4.877772e+002
5.520605e+002,4.814307e+002
5.539890e+002,4.718041e+002
5.559175e+002,4.697998e+002
5.578459e+002,4.694598e+002
5.597744e+002,4.745983e+002
5.617029e+002,4.677957e+002
5.636313e+002,4.678329e+002
5.655598e+002,4.691223e+002
5.674883e+002,4.641081e+002
5.694167e+002,4.572836e+002
5.713452e+002,4.693443e+002
5.732737e+002,4.689002e+002
5.752021e+002,4.561465e+002
5.771306e+002,4.471929e+002
5.790591e+002,4.489189e+002
5.809875e+002,4.475233e+002
5.829160e+002,4.522443e+002
5.848445e+002,4.457738e+002
5.867729e+002,4.434963e+002
5.887014e+002,4.461011e+002
5.906299e+002,4.478938e+002
5.925583e+002,4.474587e+002
5.944868e+002,4.381034e+002
5.964153e+002,4.479066e+002
5.983438e+002,4.561098e+002
6.002722e+002,4.524865e+002
6.022007e+002,4.444828e+002
6.041292e+002,4.525756e+002
6.060576e+002,4.744607e+002
6.079861e+002,4.833526e+002
6.099146e+002,5.029603e+002
6.118430e+002,5.650093e+002
6.137715e+002,6.945017e+002
6.157000e+002,9.032328e+002
6.176284e+002,1.237252e+003
6.195569e+002,1.549132e+003
6.214854e+002,1.465478e+003
6.234138e+002,1.076187e+003
6.253423e+002,7.157304e+002
6.272708e+002,5.917036e+002
6.291992e+002,5.449080e+002
6.311277e+002,5.077551e+002
6.330562e+002,4.857517e+002
6.349846e+002,4.735376e+002
6.369131e+002,4.595503e+002
6.388416e+002,4.416422e+002
6.407700e+002,4.332174e+002
6.426985e+002,4.287610e+002
6.446270e+002,4.245671e+002
6.465554e+002,4.233279e+002
6.484839e+002,4.256516e+002
6.504124e+002,4.244441e+002
6.523408e+002,4.130436e+002
6.542693e+002,4.132436e+002
6.561978e+002,4.209083e+002
6.581262e+002,4.203237e+002
6.600547e+002,4.105593e+002
6.619832e+002,4.100221e+002
6.639116e+002,4.090288e+002
6.658401e+002,4.124323e+002
6.677686e+002,4.075756e+002
6.696970e+002,4.035933e+002
6.716255e+002,4.066927e+002
6.735540e+002,4.113964e+002
6.754824e+002,4.128088e+002
6.774109e+002,4.093108e+002
6.793394e+002,4.060454e+002
6.812678e+002,4.059565e+002
6.831963e+002,4.099726e+002
6.851248e+002,4.162273e+002
6.870532e+002,4.190343e+002
6.889817e+002,4.115681e+002
6.909102e+002,4.145518e+002
6.928386e+002,4.203821e+002
6.947671e+002,4.295011e+002
6.966956e+002,4.440693e+002
6.986240e+002,4.545337e+002
7.005525e+002,4.637533e+002
7.024810e+002,4.619505e+002
7.044094e+002,4.537464e+002
7.063379e+002,4.430320e+002
7.082664e+002,4.339255e+002
7.101948e+002,4.295450e+002
7.121233e+002,4.200432e+002
7.140518e+002,4.193154e+002
7.159802e+002,4.287236e+002
7.179087e+002,4.370957e+002
7.198372e+002,4.394261e+002
7.217656e+002,4.402733e+002
7.236941e+002,4.434572e+002
7.256226e+002,4.543654e+002
7.275510e+002,4.732826e+002
7.294795e+002,4.889524e+002
7.314080e+002,5.182189e+002
7.333364e+002,5.661830e+002
7.352649e+002,5.920134e+002
7.371934e+002,6.238289e+002
7.391218e+002,6.478217e+002
7.410503e+002,6.731832e+002
7.429788e+002,6.913896e+002
7.449072e+002,7.002562e+002
7.468357e+002,7.139425e+002
7.487642e+002,7.481039e+002
7.506926e+002,7.817736e+002
7.526211e+002,8.118664e+002
7.545496e+002,8.398655e+002
7.564780e+002,8.527643e+002
7.584065e+002,8.446892e+002
7.603350e+002,8.387984e+002
7.622634e+002,8.217555e+002
7.641919e+002,8.119696e+002
7.661204e+002,8.073239e+002
7.680488e+002,7.918386e+002
7.699773e+002,7.706146e+002
7.719058e+002,7.614562e+002
7.738342e+002,7.346883e+002
7.757627e+002,7.459319e+002
7.776912e+002,7.564301e+002
7.796196e+002,7.841132e+002
7.815481e+002,8.350470e+002
7.834766e+002,9.019872e+002
7.854050e+002,9.791009e+002
7.873335e+002,1.067387e+003
7.892620e+002,1.160666e+003
7.911904e+002,1.246855e+003
7.931189e+002,1.303279e+003
7.950474e+002,1.312796e+003
7.969758e+002,1.266220e+003
7.989043e+002,1.159542e+003
8.008328e+002,1.048299e+003
8.027612e+002,9.382638e+002
8.046897e+002,8.510837e+002
8.066182e+002,7.955070e+002
8.085466e+002,7.577825e+002
8.104751e+002,7.175361e+002
8.124036e+002,6.912903e+002
8.143320e+002,6.502658e+002
8.162605e+002,6.095664e+002
8.181890e+002,5.793751e+002
8.201174e+002,5.577573e+002
8.220459e+002,5.404081e+002
8.239744e+002,5.296739e+002
8.259028e+002,5.294769e+002
8.278313e+002,5.383317e+002
8.297598e+002,5.594373e+002
8.316882e+002,5.855894e+002
8.336167e+002,6.149875e+002
8.355452e+002,6.493143e+002
8.374736e+002,6.843598e+002
8.394021e+002,7.007133e+002
8.413306e+002,7.066024e+002
8.432590e+002,6.868758e+002
8.451875e+002,6.504792e+002
8.471160e+002,6.189049e+002
8.490444e+002,6.036587e+002
8.509729e+002,5.904724e+002
8.529014e+002,5.747058e+002
8.548298e+002,5.718215e+002
8.567583e+002,5.769185e+002
8.586868e+002,5.754786e+002
8.606152e+002,5.677517e+002
8.625437e+002,5.671557e+002
8.644722e+002,5.798923e+002
8.664006e+002,5.805652e+002
8.683291e+002,5.787670e+002
8.702576e+002,5.692607e+002
8.721860e+002,5.664960e+002
8.741145e+002,5.658358e+002
8.760430e+002,5.584638e+002
8.779714e+002,5.644790e+002
8.798999e+002,5.559400e+002
8.818284e+002,5.529427e+002
8.837568e+002,5.609775e+002
8.856853e+002,5.659332e+002
8.876138e+002,5.627200e+002
8.895422e+002,5.607007e+002
8.914707e+002,5.705863e+002
8.933992e+002,5.839779e+002
8.953276e+002,6.007506e+002
8.972561e+002,6.260411e+002
8.991846e+002,6.596265e+002
9.011130e+002,6.873342e+002
9.030415e+002,6.961117e+002
9.049700e+002,6.894689e+002
9.068984e+002,6.677788e+002
9.088269e+002,6.451541e+002
9.107554e+002,6.202299e+002
9.126838e+002,5.949296e+002
9.146123e+002,5.701290e+002
9.165408e+002,5.525572e+002
9.184692e+002,5.506346e+002
9.203977e+002,5.427857e+002
9.223262e+002,5.336609e+002
9.242546e+002,5.326221e+002
9.261831e+002,5.246536e+002
9.281116e+002,5.191940e+002
9.300400e+002,5.281603e+002
9.319685e+002,5.430327e+002
9.338970e+002,5.394397e+002
9.358254e+002,5.406303e+002
9.377539e+002,5.476176e+002
9.396824e+002,5.559614e+002
9.416108e+002,5.594125e+002
9.435393e+002,5.552741e+002
9.454678e+002,5.512618e+002
9.473962e+002,5.623680e+002
9.493247e+002,5.639598e+002
9.512532e+002,5.614422e+002
9.531816e+002,5.675856e+002
9.551101e+002,5.807117e+002
9.570386e+002,5.928216e+002
9.589670e+002,6.005762e+002
9.608955e+002,6.096218e+002
9.628240e+002,6.247990e+002
9.647524e+002,6.279405e+002
9.666809e+002,6.299822e+002
9.686094e+002,6.339177e+002
9.705378e+002,6.366274e+002
9.724663e+002,6.437938e+002
9.743948e+002,6.686993e+002
9.763232e+002,7.153118e+002
9.782517e+002,7.674958e+002
9.801802e+002,8.226758e+002
9.821086e+002,8.858198e+002
9.840371e+002,1.007873e+003
9.859656e+002,1.196747e+003
9.878940e+002,1.403466e+003
9.898225e+002,1.590566e+003
9.917510e+002,1.868120e+003
9.936794e+002,2.582159e+003
9.956079e+002,4.299315e+003
9.975364e+002,7.353974e+003
9.994648e+002,1.043133e+004
1.001393e+003,1.080242e+004
1.003322e+003,7.576254e+003
1.005250e+003,3.991087e+003
1.007179e+003,2.171115e+003
1.009107e+003,1.383521e+003
1.011036e+003,1.056927e+003
1.012964e+003,9.106607e+002
1.014893e+003,8.465397e+002
1.016821e+003,8.476447e+002
1.018750e+003,9.134136e+002
1.020678e+003,1.050139e+003
1.022606e+003,1.314927e+003
1.024535e+003,1.768316e+003
1.026463e+003,2.342050e+003
1.028392e+003,2.856156e+003
1.030320e+003,3.088254e+003
1.032249e+003,2.907173e+003
1.034177e+003,2.393218e+003
1.036106e+003,1.846380e+003
1.038034e+003,1.451578e+003
1.039963e+003,1.183395e+003
1.041891e+003,1.017899e+003
1.043820e+003,9.223434e+002
1.045748e+003,8.645969e+002
1.047677e+003,8.256505e+002
1.049605e+003,8.000412e+002
1.051533e+003,7.822931e+002
1.053462e+003,7.753306e+002
1.055390e+003,7.663756e+002
1.057319e+003,7.569614e+002
1.059247e+003,7.642298e+002
1.061176e+003,7.815489e+002
1.063104e+003,8.004363e+002
1.065033e+003,8.240369e+002
1.066961e+003,8.415087e+002
1.068890e+003,8.373843e+002
1.070818e+003,8.399365e+002
1.072747e+003,8.375590e+002
1.074675e+003,8.155010e+002
1.076604e+003,7.938425e+002
1.078532e+003,7.880658e+002
1.080460e+003,7.874512e+002
1.082389e+003,7.832786e+002
1.084317e+003,7.772563e+002
1.086246e+003,7.712869e+002
1.088174e+003,7.709581e+002
1.090103e+003,7.773486e+002
1.092031e+003,7.827147e+002
1.093960e+003,7.799094e+002
1.095888e+003,7.761010e+002
1.097817e+003,7.825168e+002
1.099745e+003,7.431240e+002
1.101674e+003,7.199835e+002
1.103602e+003,6.986212e+002
1.105531e+003,6.773345e+002
1.107459e+003,6.510295e+002
1.109387e+003,6.237333e+002
1.111316e+003,6.065073e+002
1.113244e+003,6.014737e+002
1.115173e+003,5.901163e+002
1.117101e+003,5.763273e+002
1.119030e+003,5.583768e+002
1.120958e+003,5.519865e+002
1.122887e+003,5.523441e+002
1.124815e+003,5.411614e+002
1.126744e+003,5.321889e+002
1.128672e+003,5.458543e+002
1.130601e+003,5.412059e+002
1.132529e+003,5.541269e+002
1.134458e+003,5.613395e+002
1.136386e+003,5.818098e+002
1.138314e+003,5.988940e+002
1.140243e+003,6.225693e+002
1.142171e+003,6.660188e+002
1.144100e+003,7.276262e+002
1.146028e+003,8.036249e+002
1.147957e+003,9.194114e+002
1.149885e+003,1.112505e+003
1.151814e+003,1.331990e+003
1.153742e+003,1.448453e+003
1.155671e+003,1.403893e+003
1.157599e+003,1.256547e+003
1.159528e+003,1.092928e+003
1.161456e+003,9.695376e+002
1.163385e+003,9.127209e+002
1.165313e+003,8.928580e+002
1.167241e+003,9.015793e+002
1.169170e+003,9.120189e+002
1.171098e+003,9.633276e+002
1.173027e+003,1.053115e+003
1.174955e+003,1.210773e+003
1.176884e+003,1.447928e+003
1.178812e+003,1.685721e+003
1.180741e+003,1.787309e+003
1.182669e+003,1.758247e+003
1.184598e+003,1.679387e+003
1.186526e+003,1.624249e+003
1.188455e+003,1.644955e+003
1.190383e+003,1.718405e+003
1.192312e+003,1.804607e+003
1.194240e+003,1.873235e+003
1.196168e+003,1.911455e+003
1.198097e+003,1.924624e+003
1.200025e+003,1.903833e+003
1.201954e+003,1.831855e+003
1.203882e+003,1.690019e+003
1.205811e+003,1.542179e+003
1.207739e+003,1.387095e+003
1.209668e+003,1.237266e+003
1.211596e+003,1.112835e+003
1.213525e+003,1.019818e+003
1.215453e+003,9.587780e+002
1.217382e+003,9.145543e+002
1.219310e+003,8.813935e+002
1.221239e+003,8.600266e+002
1.223167e+003,8.342294e+002
1.225095e+003,8.127657e+002
1.227024e+003,7.892150e+002
1.228952e+003,7.561387e+002
1.230881e+003,7.259071e+002
1.232809e+003,7.144543e+002
1.234738e+003,6.973609e+002
1.236666e+003,6.979379e+002
1.238595e+003,6.943363e+002
1.240523e+003,6.780772e+002
1.242452e+003,6.650732e+002
1.244380e+003,6.718262e+002
1.246309e+003,6.802714e+002
1.248237e+003,6.706412e+002
1.250166e+003,6.594857e+002
1.252094e+003,6.677081e+002
1.254022e+003,6.594581e+002
1.255951e+003,6.312258e+002
1.257879e+003,6.311129e+002
1.259808e+003,6.340189e+002
1.261736e+003,6.379805e+002
1.263665e+003,6.342144e+002
1.265593e+003,6.320151e+002
1.267522e+003,6.413884e+002
1.269450e+003,6.424497e+002
1.271379e+003,6.458729e+002
1.273307e+003,6.401393e+002
1.275236e+003,6.392854e+002
1.277164e+003,6.488745e+002
1.279093e+003,6.492961e+002
1.281021e+003,6.433252e+002
1.282949e+003,6.502043e+002
1.284878e+003,6.665401e+002
1.286806e+003,6.667759e+002
1.288735e+003,6.544299e+002
1.290663e+003,6.767806e+002
1.292592e+003,6.939695e+002
1.294520e+003,7.117186e+002
1.296449e+003,7.203513e+002
1.298377e+003,7.236566e+002
1.300306e+003,7.327554e+002
1.302234e+003,7.490077e+002
1.304163e+003,7.607318e+002
1.306091e+003,7.588162e+002
1.308020e+003,7.533343e+002
1.309948e+003,7.624438e+002
1.311876e+003,7.843310e+002
1.313805e+003,8.058472e+002
1.315733e+003,8.264182e+002
1.317662e+003,8.510307e+002
1.319590e+003,8.769796e+002
1.321519e+003,8.927538e+002
1.323447e+003,9.039413e+002
1.325376e+003,9.229313e+002
1.327304e+003,9.350638e+002
1.329233e+003,9.285460e+002
1.331161e+003,9.025216e+002
1.333090e+003,8.907372e+002
1.335018e+003,8.573514e+002
1.336947e+003,8.186119e+002
1.338875e+003,7.855734e+002
1.340803e+003,7.581110e+002
1.342732e+003,7.379266e+002
1.344660e+003,7.259418e+002
1.346589e+003,7.151801e+002
1.348517e+003,7.050338e+002
1.350446e+003,7.083062e+002
1.352374e+003,6.976236e+002
1.354303e+003,6.860590e+002
1.356231e+003,6.941551e+002
1.358160e+003,7.091290e+002
1.360088e+003,7.023941e+002
1.362017e+003,6.949526e+002
1.363945e+003,7.003512e+002
1.365874e+003,6.975272e+002
1.367802e+003,6.957328e+002
1.369730e+003,7.115373e+002
1.371659e+003,7.126245e+002
1.373587e+003,6.940378e+002
1.375516e+003,6.666702e+002
1.377444e+003,6.376229e+002
1.379373e+003,6.227604e+002
1.381301e+003,6.022465e+002
1.383230e+003,5.821898e+002
1.385158e+003,5.740494e+002
1.387087e+003,5.597606e+002
1.389015e+003,5.443117e+002
1.390944e+003,5.706906e+002
1.392872e+003,5.530705e+002
1.394801e+003,5.413456e+002
1.396729e+003,5.436568e+002
1.398657e+003,5.494183e+002
1.400586e+003,5.567594e+002
1.402514e+003,5.555387e+002
1.404443e+003,5.483271e+002
1.406371e+003,5.471393e+002
1.408300e+003,5.491318e+002
1.410228e+003,5.410488e+002
1.412157e+003,5.370079e+002
1.414085e+003,5.371053e+002
1.416014e+003,5.353513e+002
1.417942e+003,5.286473e+002
1.419871e+003,5.351702e+002
1.421799e+003,5.314617e+002
1.423728e+003,5.330760e+002
1.425656e+003,5.419550e+002
1.427584e+003,5.512742e+002
1.429513e+003,5.729343e+002
1.431441e+003,6.136396e+002
1.433370e+003,6.488678e+002
1.435298e+003,6.948831e+002
1.437227e+003,7.505504e+002
1.439155e+003,7.899343e+002
1.441084e+003,8.387794e+002
1.443012e+003,9.052228e+002
1.444941e+003,9.684133e+002
1.446869e+003,1.012626e+003
1.448798e+003,1.038428e+003
1.450726e+003,1.023138e+003
1.452655e+003,9.513058e+002
1.454583e+003,8.567392e+002
1.456511e+003,7.246176e+002
1.458440e+003,6.528445e+002
1.460368e+003,6.012954e+002
1.462297e+003,5.768301e+002
1.464225e+003,5.655394e+002
1.466154e+003,5.592701e+002
1.468082e+003,5.561757e+002
1.470011e+003,5.477246e+002
1.471939e+003,5.417098e+002
1.473868e+003,5.383842e+002
1.475796e+003,5.351342e+002
1.477725e+003,5.452812e+002
1.479653e+003,5.357245e+002
1.481582e+003,5.462873e+002
1.483510e+003,5.399453e+002
1.485438e+003,5.399833e+002
1.487367e+003,5.423046e+002
1.489295e+003,5.601805e+002
1.491224e+003,5.755532e+002
1.493152e+003,5.803077e+002
1.495081e+003,5.732067e+002
1.497009e+003,5.593011e+002
1.498938e+003,5.510909e+002
1.500866e+003,5.528499e+002
1.502795e+003,5.503367e+002
1.504723e+003,5.396199e+002
1.506652e+003,5.345967e+002
1.508580e+003,5.313701e+002
1.510509e+003,5.378486e+002
1.512437e+003,5.240996e+002
1.514365e+003,5.335863e+002
1.516294e+003,5.428483e+002
1.518222e+003,5.390964e+002
1.520151e+003,5.383744e+002
1.522079e+003,5.455073e+002
1.524008e+003,5.473845e+002
1.525936e+003,5.443932e+002
1.527865e+003,5.495305e+002
1.529793e+003,5.491400e+002
1.531722e+003,5.373638e+002
1.533650e+003,5.508129e+002
1.535579e+003,5.455839e+002
1.537507e+003,5.475560e+002
1.539436e+003,5.503345e+002
1.541364e+003,5.468644e+002
1.543292e+003,5.488172e+002
1.545221e+003,5.570933e+002
1.547149e+003,5.583898e+002
1.549078e+003,5.551542e+002
1.551006e+003,5.588570e+002
1.552935e+003,5.589937e+002
1.554863e+003,5.667813e+002
1.556792e+003,5.735679e+002
1.558720e+003,5.782680e+002
1.560649e+003,5.855383e+002
1.562577e+003,5.824999e+002
1.564506e+003,5.970516e+002
1.566434e+003,6.130300e+002
1.568363e+003,6.298669e+002
1.570291e+003,6.612322e+002
1.572219e+003,6.973544e+002
1.574148e+003,7.440712e+002
1.576076e+003,8.434247e+002
1.578005e+003,1.036073e+003
1.579933e+003,1.313181e+003
1.581862e+003,1.496626e+003
1.583790e+003,1.376257e+003
1.585719e+003,1.118534e+003
1.587647e+003,9.639825e+002
1.589576e+003,9.536054e+002
1.591504e+003,1.055719e+003
1.593433e+003,1.241306e+003
1.595361e+003,1.576745e+003
1.597290e+003,2.116768e+003
1.599218e+003,2.697509e+003
1.601146e+003,2.970326e+003
1.603075e+003,2.726479e+003
1.605003e+003,2.145767e+003
1.606932e+003,1.592974e+003
1.608860e+003,1.194039e+003
1.610789e+003,9.533291e+002
1.612717e+003,8.135461e+002
1.614646e+003,7.434174e+002
1.616574e+003,7.054620e+002
1.618503e+003,6.866937e+002
1.620431e+003,6.802429e+002
1.622360e+003,6.549620e+002
1.624288e+003,6.441260e+002
1.626217e+003,6.324480e+002
1.628145e+003,6.177382e+002
1.630073e+003,6.032687e+002
1.632002e+003,5.920291e+002
1.633930e+003,5.943931e+002
1.635859e+003,5.861924e+002
1.637787e+003,5.789756e+002
1.639716e+003,5.811372e+002
1.641644e+003,5.768432e+002
1.643573e+003,5.716949e+002
1.645501e+003,5.683435e+002
1.647430e+003,5.702288e+002
1.649358e+003,5.730129e+002
1.651287e+003,5.656276e+002
1.653215e+003,5.627510e+002
1.655144e+003,5.624615e+002
1.657072e+003,5.597007e+002
1.659000e+003,5.582271e+002
1.660929e+003,5.602078e+002
1.662857e+003,5.626532e+002
1.664786e+003,5.593415e+002
1.666714e+003,5.523195e+002
1.668643e+003,5.658525e+002
1.670571e+003,5.646736e+002
1.672500e+003,5.636778e+002
1.674428e+003,5.640372e+002
1.676357e+003,5.721586e+002
1.678285e+003,5.843820e+002
1.680214e+003,5.846441e+002
1.682142e+003,5.869409e+002
1.684071e+003,5.760720e+002
1.685999e+003,5.720808e+002
1.687927e+003,5.662819e+002
1.689856e+003,5.621987e+002
1.691784e+003,5.660541e+002
1.693713e+003,5.677036e+002
1.695641e+003,5.649597e+002
1.697570e+003,5.603774e+002
1.699498e+003,5.540123e+002
1.701427e+003,5.633419e+002
1.703355e+003,5.607738e+002
1.705284e+003,5.518322e+002
1.707212e+003,5.529376e+002
1.709141e+003,5.583788e+002
1.711069e+003,5.694650e+002
1.712998e+003,5.566993e+002
1.714926e+003,5.523190e+002
1.716854e+003,5.475690e+002
1.718783e+003,5.547386e+002
1.720711e+003,5.538902e+002
1.722640e+003,5.551060e+002
1.724568e+003,5.575271e+002
1.726497e+003,5.502318e+002
1.728425e+003,5.452119e+002
1.730354e+003,5.522487e+002
1.732282e+003,5.622693e+002
1.734211e+003,5.662817e+002
1.736139e+003,5.679241e+002
1.738068e+003,5.684590e+002
1.739996e+003,5.624431e+002
1.741925e+003,5.635553e+002
1.743853e+003,5.747330e+002
1.745781e+003,5.708205e+002
1.747710e+003,5.654324e+002
1.749638e+003,5.684594e+002
1.751567e+003,5.577881e+002
1.753495e+003,5.632148e+002
1.755424e+003,5.721913e+002
1.757352e+003,5.629188e+002
1.759281e+003,5.577573e+002
1.761209e+003,5.672161e+002
1.763138e+003,5.681014e+002
1.765066e+003,5.577698e+002
1.766995e+003,5.574815e+002
1.768923e+003,5.606357e+002
1.770852e+003,5.550411e+002
1.772780e+003,5.677653e+002
1.774708e+003,5.757850e+002
1.776637e+003,5.654127e+002
1.778565e+003,5.533169e+002
1.780494e+003,5.497311e+002
1.782422e+003,5.704380e+002
1.784351e+003,5.724895e+002
1.786279e+003,5.672134e+002
1.788208e+003,5.628216e+002
1.790136e+003,5.695729e+002
1.792065e+003,5.722885e+002
1.793993e+003,5.661716e+002
1.795922e+003,5.734329e+002
1.797850e+003,5.847965e+002
1.799779e+003,5.794493e+002
1.801707e+003,5.769335e+002
1.803635e+003,5.803061e+002
1.805564e+003,5.809568e+002
1.807492e+003,5.801324e+002
1.809421e+003,5.715110e+002
1.811349e+003,5.846017e+002
1.813278e+003,5.847354e+002
1.815206e+003,5.775077e+002
1.817135e+003,5.851566e+002
1.819063e+003,5.870957e+002
1.820992e+003,5.774598e+002
1.822920e+003,5.781090e+002
1.824849e+003,5.866318e+002
1.826777e+003,5.807958e+002
1.828706e+003,5.754314e+002
1.830634e+003,5.813333e+002
1.832563e+003,5.732225e+002
1.834491e+003,5.785908e+002
1.836419e+003,5.741364e+002
1.838348e+003,5.693306e+002
1.840276e+003,5.673850e+002
1.842205e+003,5.742251e+002
1.844133e+003,5.778282e+002
1.846062e+003,5.817349e+002
1.847990e+003,5.906966e+002
1.849919e+003,5.882439e+002
1.851847e+003,5.791973e+002
1.853776e+003,5.771180e+002
1.855704e+003,5.835047e+002
1.857633e+003,5.930752e+002
1.859561e+003,5.702161e+002
1.861490e+003,5.860361e+002
1.863418e+003,5.923577e+002
1.865346e+003,5.869722e+002
1.867275e+003,5.837153e+002
1.869203e+003,5.816011e+002
1.871132e+003,5.856093e+002
1.873060e+003,5.874641e+002
1.874989e+003,5.887662e+002
1.876917e+003,5.917269e+002
1.878846e+003,5.905191e+002
1.880774e+003,5.881766e+002
1.882703e+003,5.880001e+002
1.884631e+003,5.829893e+002
1.886560e+003,5.869391e+002
1.888488e+003,5.903748e+002
1.890417e+003,5.919310e+002
1.892345e+003,5.977393e+002
1.894273e+003,5.977670e+002
1.896202e+003,5.877685e+002
1.898130e+003,5.842870e+002
1.900059e+003,5.903854e+002
1.901987e+003,5.912781e+002
1.903916e+003,5.907186e+002
1.905844e+003,5.949484e+002
1.907773e+003,5.900077e+002
1.909701e+003,5.859838e+002
1.911630e+003,6.008776e+002
1.913558e+003,6.002820e+002
1.915487e+003,5.967844e+002
1.917415e+003,6.043808e+002
1.919344e+003,6.138196e+002
1.921272e+003,6.015240e+002
1.923200e+003,6.156762e+002
1.925129e+003,6.188227e+002
1.927057e+003,6.197255e+002
1.928986e+003,6.136041e+002
1.930914e+003,6.138151e+002
1.932843e+003,6.133638e+002
1.934771e+003,6.096558e+002
1.936700e+003,6.060679e+002
1.938628e+003,5.974380e+002
1.940557e+003,6.030199e+002
1.942485e+003,6.005558e+002
1.944414e+003,6.043648e+002
1.946342e+003,6.056516e+002
1.948271e+003,6.122023e+002
1.950199e+003,6.178719e+002
1.952127e+003,6.187526e+002
1.954056e+003,6.153867e+002
1.955984e+003,6.159532e+002
1.957913e+003,6.170340e+002
1.959841e+003,6.126993e+002
1.961770e+003,6.128634e+002
1.963698e+003,6.141694e+002
1.965627e+003,6.100831e+002
1.967555e+003,6.071508e+002
1.969484e+003,6.088730e+002
1.971412e+003,6.084565e+002
1.973341e+003,6.027186e+002
1.975269e+003,6.182189e+002
1.977198e+003,5.963889e+002
1.979126e+003,6.034630e+002
1.981054e+003,6.210131e+002
1.982983e+003,6.135702e+002
1.984911e+003,6.111519e+002
1.986840e+003,6.091122e+002
1.988768e+003,6.097657e+002
1.990697e+003,6.168301e+002
1.992625e+003,6.169777e+002
1.994554e+003,6.103596e+002
1.996482e+003,6.108373e+002
1.998411e+003,6.109496e+002
2.000339e+003,6.173824e+002
2.002268e+003,6.133656e+002
2.004196e+003,6.298614e+002
2.006125e+003,6.200277e+002
2.008053e+003,6.151738e+002
2.009981e+003,6.164506e+002
2.011910e+003,6.168641e+002
2.013838e+003,6.217350e+002
2.015767e+003,6.236825e+002
2.017695e+003,6.254623e+002
2.019624e+003,6.315856e+002
2.021552e+003,6.279761e+002
2.023481e+003,6.195384e+002
2.025409e+003,6.172212e+002
2.027338e+003,6.273363e+002
2.029266e+003,6.243406e+002
2.031195e+003,6.283077e+002
2.033123e+003,6.206132e+002
2.035052e+003,6.236119e+002
2.036980e+003,6.306973e+002
2.038908e+003,6.262167e+002
2.040837e+003,6.291660e+002
2.042765e+003,6.277023e+002
2.044694e+003,6.248087e+002
2.046622e+003,6.265734e+002
2.048551e+003,6.320459e+002
2.050479e+003,6.279126e+002
2.052408e+003,6.207416e+002
2.054336e+003,6.289619e+002
2.056265e+003,6.277099e+002
2.058193e+003,6.347043e+002
2.060122e+003,6.345515e+002
2.062050e+003,6.347629e+002
2.063979e+003,6.346432e+002
2.065907e+003,6.279390e+002
2.067835e+003,6.328876e+002
2.069764e+003,6.393464e+002
2.071692e+003,6.429863e+002
2.073621e+003,6.382971e+002
2.075549e+003,6.318303e+002
2.077478e+003,6.394028e+002
2.079406e+003,6.418816e+002
2.081335e+003,6.466260e+002
2.083263e+003,6.299442e+002
2.085192e+003,6.349890e+002
2.087120e+003,6.400059e+002
2.089049e+003,6.389500e+002
2.090977e+003,6.534462e+002
2.092906e+003,6.393747e+002
2.094834e+003,6.444858e+002
2.096762e+003,6.489260e+002
2.098691e+003,6.445561e+002
2.100619e+003,6.407044e+002
2.102548e+003,6.329088e+002
2.104476e+003,6.380089e+002
2.106405e+003,6.557662e+002
2.108333e+003,6.372781e+002
2.110262e+003,6.561218e+002
2.112190e+003,6.421855e+002
2.114119e+003,6.381211e+002
2.116047e+003,6.477156e+002
2.117976e+003,6.531089e+002
2.119904e+003,6.451750e+002
2.121833e+003,6.422839e+002
2.123761e+003,6.411906e+002
2.125689e+003,6.425176e+002
2.127618e+003,6.468101e+002
2.129546e+003,6.481711e+002
2.131475e+003,6.515330e+002
2.133403e+003,6.469186e+002
2.135332e+003,6.514643e+002
2.137260e+003,6.503006e+002
2.139189e+003,6.613432e+002
2.141117e+003,6.587279e+002
2.143046e+003,6.446949e+002
2.144974e+003,6.574803e+002
2.146903e+003,6.628416e+002
2.148831e+003,6.542023e+002
2.150760e+003,6.525336e+002
2.152688e+003,6.549190e+002
2.154616e+003,6.547667e+002
2.156545e+003,6.618055e+002
2.158473e+003,6.648469e+002
2.160402e+003,6.590851e+002
2.162330e+003,6.561203e+002
2.164259e+003,6.626685e+002
2.166187e+003,6.554799e+002
2.168116e+003,6.550672e+002
2.170044e+003,6.673350e+002
2.171973e+003,6.652372e+002
2.173901e+003,6.662387e+002
2.175830e+003,6.691143e+002
2.177758e+003,6.701405e+002
2.179687e+003,6.745132e+002
2.181615e+003,6.773660e+002
2.183543e+003,6.748372e+002
2.185472e+003,6.722922e+002
2.187400e+003,6.751198e+002
2.189329e+003,6.761389e+002
2.191257e+003,6.649637e+002
2.193186e+003,6.734097e+002
2.195114e+003,6.774921e+002
2.197043e+003,6.725233e+002
2.198971e+003,6.808781e+002
2.200900e+003,6.883064e+002
2.202828e+003,6.797231e+002
2.204757e+003,6.791765e+002
2.206685e+003,6.832427e+002
2.208614e+003,6.737439e+002
2.210542e+003,6.767395e+002
2.212470e+003,6.788296e+002
2.214399e+003,6.550439e+002
2.216327e+003,6.834597e+002
2.218256e+003,6.811185e+002
2.220184e+003,6.820337e+002
2.222113e+003,6.934587e+002
2.224041e+003,6.909354e+002
2.225970e+003,6.809625e+002
2.227898e+003,6.692616e+002
2.229827e+003,6.694843e+002
2.231755e+003,6.851538e+002
2.233684e+003,6.926738e+002
2.235612e+003,6.820230e+002
2.237541e+003,6.770497e+002
2.239469e+003,6.823508e+002
2.241397e+003,6.817474e+002
2.243326e+003,6.972163e+002
2.245254e+003,6.843723e+002
2.247183e+003,6.994426e+002
2.249111e+003,6.990362e+002
2.251040e+003,6.932172e+002
2.252968e+003,6.862372e+002
2.254897e+003,6.881227e+002
2.256825e+003,6.986865e+002
2.258754e+003,7.008556e+002
2.260682e+003,7.038013e+002
2.262611e+003,7.074843e+002
2.264539e+003,6.914687e+002
2.266468e+003,6.996840e+002
2.268396e+003,7.020840e+002
2.270324e+003,6.927291e+002
2.272253e+003,6.880564e+002
2.274181e+003,7.038391e+002
2.276110e+003,6.991798e+002
2.278038e+003,6.951100e+002
2.279967e+003,6.949160e+002
2.281895e+003,7.012014e+002
2.283824e+003,7.077951e+002
2.285752e+003,7.025826e+002
2.287681e+003,7.025138e+002
2.289609e+003,7.144675e+002
2.291538e+003,7.054488e+002
2.293466e+003,7.072683e+002
2.295395e+003,7.137139e+002
2.297323e+003,7.205185e+002
2.299251e+003,7.112231e+002
2.301180e+003,7.374466e+002
2.303108e+003,7.380769e+002
2.305037e+003,7.282513e+002
2.306965e+003,7.355497e+002
2.308894e+003,7.325455e+002
2.310822e+003,7.278770e+002
2.312751e+003,7.258429e+002
2.314679e+003,7.266628e+002
2.316608e+003,7.354669e+002
2.318536e+003,7.246593e+002
2.320465e+003,7.199594e+002
2.322393e+003,7.238404e+002
2.324322e+003,7.380068e+002
2.326250e+003,7.454260e+002
2.328178e+003,7.337955e+002
2.330107e+003,7.291575e+002
2.332035e+003,7.339864e+002
2.333964e+003,7.374076e+002
2.335892e+003,7.287695e+002
2.337821e+003,7.303291e+002
2.339749e+003,7.336760e+002
2.341678e+003,7.348930e+002
2.343606e+003,7.377556e+002
2.345535e+003,7.305743e+002
2.347463e+003,7.380394e+002
2.349392e+003,7.474775e+002
2.351320e+003,7.477278e+002
2.353249e+003,7.467529e+002
2.355177e+003,7.451700e+002
2.357105e+003,7.490679e+002
2.359034e+003,7.549368e+002
2.360962e+003,7.502570e+002
2.362891e+003,7.410057e+002
2.364819e+003,7.466490e+002
2.366748e+003,7.499507e+002
2.368676e+003,7.529969e+002
2.370605e+003,7.574705e+002
2.372533e+003,7.528722e+002
2.374462e+003,7.435212e+002
2.376390e+003,7.624222e+002
2.378319e+003,7.631093e+002
2.380247e+003,7.535966e+002
2.382176e+003,7.529129e+002
2.384104e+003,7.563021e+002
2.386032e+003,7.678966e+002
2.387961e+003,7.649792e+002
2.389889e+003,7.628248e+002
2.391818e+003,7.729764e+002
2.393746e+003,7.597048e+002
2.395675e+003,7.693899e+002
2.397603e+003,7.612294e+002
2.399532e+003,7.700759e+002
2.401460e+003,7.612178e+002
2.403389e+003,7.694484e+002
2.405317e+003,7.648325e+002
2.407246e+003,7.684954e+002
2.409174e+003,7.691557e+002
2.411103e+003,7.650739e+002
2.413031e+003,7.672879e+002
2.414959e+003,7.706321e+002
2.416888e+003,7.741960e+002
2.418816e+003,7.769834e+002
2.420745e+003,7.761297e+002
2.422673e+003,7.844774e+002
2.424602e+003,7.769099e+002
2.426530e+003,7.632835e+002
2.428459e+003,7.853165e+002
2.430387e+003,7.902405e+002
2.432316e+003,7.921136e+002
2.434244e+003,7.980512e+002
2.436173e+003,7.983307e+002
2.438101e+003,7.944174e+002
2.440030e+003,7.960326e+002
2.441958e+003,7.932131e+002
2.443886e+003,8.053161e+002
2.445815e+003,8.142736e+002
2.447743e+003,8.149244e+002
2.449672e+003,8.159518e+002
2.451600e+003,8.150484e+002
2.453529e+003,8.236361e+002
2.455457e+003,8.121842e+002
2.457386e+003,8.134864e+002
2.459314e+003,8.113886e+002
2.461243e+003,8.081009e+002
2.463171e+003,8.171651e+002
2.465100e+003,8.274559e+002
2.467028e+003,8.224297e+002
2.468957e+003,8.208587e+002
2.470885e+003,8.313110e+002
2.472813e+003,8.182953e+002
2.474742e+003,8.225804e+002
2.476670e+003,8.376000e+002
2.478599e+003,8.408913e+002
2.480527e+003,8.398071e+002
2.482456e+003,8.355430e+002
2.484384e+003,8.418050e+002
2.486313e+003,8.354081e+002
2.488241e+003,8.310052e+002
2.490170e+003,8.260261e+002
2.492098e+003,8.335175e+002
2.494027e+003,8.449376e+002
2.495955e+003,8.415325e+002
2.497884e+003,8.324781e+002
2.499812e+003,8.243732e+002
2.501740e+003,8.277789e+002
2.503669e+003,8.173680e+002
2.505597e+003,8.141245e+002
2.507526e+003,8.175977e+002
2.509454e+003,8.296710e+002
2.511383e+003,8.286724e+002
2.513311e+003,8.281776e+002
2.515240e+003,8.366037e+002
2.517168e+003,8.343347e+002
2.519097e+003,8.285741e+002
2.521025e+003,8.377001e+002
2.522954e+003,8.324905e+002
2.524882e+003,8.271323e+002
2.526811e+003,8.512924e+002
2.528739e+003,8.368948e+002
2.530667e+003,8.201672e+002
2.532596e+003,8.215709e+002
2.534524e+003,8.299659e+002
2.536453e+003,8.287952e+002
2.538381e+003,8.380641e+002
2.540310e+003,8.468837e+002
2.542238e+003,8.543547e+002
2.544167e+003,8.498834e+002
2.546095e+003,8.597596e+002
2.548024e+003,8.668283e+002
2.549952e+003,8.604066e+002
2.551881e+003,8.666782e+002
2.553809e+003,8.749528e+002
2.555738e+003,8.677389e+002
2.557666e+003,8.726849e+002
2.559594e+003,8.915199e+002
2.561523e+003,9.010663e+002
2.563451e+003,8.842783e+002
2.565380e+003,8.797072e+002
2.567308e+003,8.842937e+002
2.569237e+003,8.810671e+002
2.571165e+003,8.878386e+002
2.573094e+003,8.812761e+002
2.575022e+003,8.973176e+002
2.576951e+003,9.062159e+002
2.578879e+003,8.986440e+002
2.580808e+003,9.043558e+002
2.582736e+003,9.153495e+002
2.584665e+003,9.166759e+002
2.586593e+003,9.078887e+002
2.588521e+003,9.026561e+002
2.590450e+003,9.195311e+002
2.592378e+003,9.242731e+002
2.594307e+003,9.148607e+002
2.596235e+003,9.320264e+002
2.598164e+003,9.356873e+002
2.600092e+003,9.322126e+002
2.602021e+003,9.488546e+002
2.603949e+003,9.314498e+002
2.605878e+003,9.422430e+002
2.607806e+003,9.432114e+002
2.609735e+003,9.462789e+002
2.611663e+003,9.445043e+002
2.613592e+003,9.353151e+002
2.615520e+003,9.278551e+002
2.617448e+003,9.316129e+002
2.619377e+003,9.396880e+002
2.621305e+003,9.392963e+002
2.623234e+003,9.437598e+002
2.625162e+003,9.301225e+002
2.627091e+003,9.282300e+002
2.629019e+003,9.389779e+002
2.630948e+003,9.221950e+002
2.632876e+003,9.222972e+002
2.634805e+003,9.302438e+002
2.636733e+003,9.278082e+002
2.638662e+003,9.194314e+002
2.640590e+003,9.190408e+002
2.642519e+003,9.290145e+002
2.644447e+003,9.354003e+002
2.646375e+003,9.370703e+002
2.648304e+003,9.390049e+002
2.650232e+003,9.397484e+002
2.652161e+003,9.331617e+002
2.654089e+003,9.390486e+002
2.656018e+003,9.412088e+002
2.657946e+003,9.402913e+002
2.659875e+003,9.297420e+002
2.661803e+003,9.355068e+002
2.663732e+003,9.367186e+002
2.665660e+003,9.257255e+002
2.667589e+003,9.268781e+002
2.669517e+003,9.268270e+002
2.671446e+003,9.149314e+002
2.673374e+003,9.182437e+002
2.675302e+003,9.327349e+002
2.677231e+003,9.356986e+002
2.679159e+003,9.283326e+002
2.681088e+003,9.344637e+002
2.683016e+003,9.349124e+002
2.684945e+003,9.430654e+002
2.686873e+003,9.451049e+002
2.688802e+003,9.433250e+002
2.690730e+003,9.454033e+002
2.692659e+003,9.515170e+002
2.694587e+003,9.382813e+002
2.696516e+003,9.366155e+002
2.698444e+003,9.422695e+002
2.700373e+003,9.432937e+002
2.702301e+003,9.503087e+002
2.704229e+003,9.479033e+002
2.706158e+003,9.425900e+002
2.708086e+003,9.562932e+002
2.710015e+003,9.551637e+002
2.711943e+003,9.596200e+002
2.713872e+003,9.643984e+002
2.715800e+003,9.503137e+002
2.717729e+003,9.503698e+002
2.719657e+003,9.600533e+002
2.721586e+003,9.651255e+002
2.723514e+003,9.641521e+002
2.725443e+003,9.777734e+002
2.727371e+003,9.631238e+002
2.729300e+003,9.718987e+002
2.731228e+003,9.707480e+002
2.733156e+003,9.618104e+002
2.735085e+003,9.596970e+002
2.737013e+003,9.683087e+002
2.738942e+003,9.780493e+002
2.740870e+003,9.794935e+002
2.742799e+003,9.717071e+002
2.744727e+003,9.609104e+002
2.746656e+003,9.674731e+002
2.748584e+003,9.735980e+002
2.750513e+003,9.716872e+002
2.752441e+003,9.685627e+002
2.754370e+003,9.706729e+002
2.756298e+003,9.683057e+002
2.758227e+003,9.753436e+002
2.760155e+003,9.724401e+002
2.762083e+003,9.567045e+002
2.764012e+003,9.718097e+002
2.765940e+003,9.885761e+002
2.767869e+003,9.784744e+002
2.769797e+003,9.912012e+002
2.771726e+003,1.004911e+003
2.773654e+003,1.010711e+003
2.775583e+003,1.007044e+003
2.777511e+003,1.015019e+003
2.779440e+003,1.021505e+003
2.781368e+003,1.010196e+003
2.783297e+003,1.010644e+003
2.785225e+003,1.018258e+003
2.787154e+003,1.008674e+003
2.789082e+003,1.013697e+003
2.791010e+003,9.998068e+002
2.792939e+003,1.000018e+003
2.794867e+003,9.987219e+002
2.796796e+003,1.012400e+003
2.798724e+003,1.006983e+003
2.800653e+003,1.005188e+003
2.802581e+003,1.003994e+003
2.804510e+003,1.003026e+003
2.806438e+003,1.007812e+003
2.808367e+003,1.021156e+003
2.810295e+003,1.026106e+003
2.812224e+003,1.026945e+003
2.814152e+003,1.049382e+003
2.816081e+003,1.043208e+003
2.818009e+003,1.035708e+003
2.819938e+003,1.039311e+003
2.821866e+003,1.045896e+003
2.823794e+003,1.050541e+003
2.825723e+003,1.065338e+003
2.827651e+003,1.078826e+003
2.829580e+003,1.093690e+003
2.831508e+003,1.120407e+003
2.833437e+003,1.158561e+003
2.835365e+003,1.215894e+003
2.837294e+003,1.286787e+003
2.839222e+003,1.393352e+003
2.841151e+003,1.514237e+003
2.843079e+003,1.667439e+003
2.845008e+003,1.814407e+003
2.846936e+003,1.918167e+003
2.848865e+003,1.987538e+003
2.850793e+003,1.999485e+003
2.852721e+003,1.977661e+003
2.854650e+003,1.947714e+003
2.856578e+003,1.878070e+003
2.858507e+003,1.801415e+003
2.860435e+003,1.739310e+003
2.862364e+003,1.677671e+003
2.864292e+003,1.630188e+003
2.866221e+003,1.601035e+003
2.868149e+003,1.563604e+003
2.870078e+003,1.561606e+003
2.872006e+003,1.593590e+003
2.873935e+003,1.641794e+003
2.875863e+003,1.706464e+003
2.877792e+003,1.792054e+003
2.879720e+003,1.887245e+003
2.881648e+003,1.959119e+003
2.883577e+003,2.075527e+003
2.885505e+003,2.192810e+003
2.887434e+003,2.314720e+003
2.889362e+003,2.453050e+003
2.891291e+003,2.588563e+003
2.893219e+003,2.695496e+003
2.895148e+003,2.820498e+003
2.897076e+003,2.957416e+003
2.899005e+003,3.068093e+003
2.900933e+003,3.096461e+003
2.902862e+003,3.094651e+003
2.904790e+003,3.107572e+003
2.906719e+003,3.102368e+003
2.908647e+003,3.079026e+003
2.910575e+003,3.026962e+003
2.912504e+003,3.002512e+003
2.914432e+003,2.908479e+003
2.916361e+003,2.812625e+003
2.918289e+003,2.722908e+003
2.920218e+003,2.633057e+003
2.922146e+003,2.558174e+003
2.924075e+003,2.464311e+003
2.926003e+003,2.372291e+003
2.927932e+003,2.311675e+003
2.929860e+003,2.237790e+003
2.931789e+003,2.169180e+003
2.933717e+003,2.118947e+003
2.935646e+003,2.067286e+003
2.937574e+003,1.992410e+003
2.939502e+003,1.939301e+003
2.941431e+003,1.841036e+003
2.943359e+003,1.753235e+003
2.945288e+003,1.682056e+003
2.947216e+003,1.623757e+003
2.949145e+003,1.574504e+003
2.951073e+003,1.528872e+003
2.953002e+003,1.509968e+003
2.954930e+003,1.500369e+003
2.956859e+003,1.472364e+003
2.958787e+003,1.461995e+003
2.960716e+003,1.447300e+003
2.962644e+003,1.446985e+003
2.964573e+003,1.463400e+003
2.966501e+003,1.478469e+003
2.968429e+003,1.497510e+003
2.970358e+003,1.562359e+003
2.972286e+003,1.669688e+003
2.974215e+003,1.799927e+003
2.976143e+003,1.848179e+003
2.978072e+003,1.831169e+003
2.980000e+003,1.705448e+003
2.981929e+003,1.575800e+003
2.983857e+003,1.501012e+003
2.985786e+003,1.447000e+003
2.987714e+003,1.433662e+003
2.989643e+003,1.422938e+003
2.991571e+003,1.446561e+003
2.993500e+003,1.508416e+003
2.995428e+003,1.636030e+003
2.997356e+003,1.751662e+003
2.999285e+003,1.890149e+003
3.001213e+003,1.891298e+003
3.003142e+003,1.829406e+003
3.005070e+003,1.721736e+003
3.006999e+003,1.619144e+003
3.008927e+003,1.544247e+003
3.010856e+003,1.510477e+003
3.012784e+003,1.510223e+003
3.014713e+003,1.542847e+003
3.016641e+003,1.626058e+003
3.018570e+003,1.728111e+003
3.020498e+003,1.877910e+003
3.022427e+003,2.089261e+003
3.024355e+003,2.335107e+003
3.026283e+003,2.562700e+003
3.028212e+003,2.837203e+003
3.030140e+003,3.107171e+003
3.032069e+003,3.368788e+003
3.033997e+003,3.602815e+003
3.035926e+003,3.762531e+003
3.037854e+003,3.841666e+003
3.039783e+003,3.899394e+003
3.041711e+003,4.055918e+003
3.043640e+003,4.458948e+003
3.045568e+003,5.226568e+003
3.047497e+003,6.279981e+003
3.049425e+003,7.175285e+003
3.051354e+003,7.573441e+003
3.053282e+003,7.557288e+003
3.055210e+003,7.451209e+003
3.057139e+003,7.348622e+003
3.059067e+003,7.244307e+003
3.060996e+003,6.964141e+003
3.062924e+003,6.432016e+003
3.064853e+003,5.763234e+003
3.066781e+003,5.000431e+003
3.068710e+003,4.313187e+003
3.070638e+003,3.750781e+003
3.072567e+003,3.248010e+003
3.074495e+003,2.876595e+003
3.076424e+003,2.576074e+003
3.078352e+003,2.364158e+003
3.080281e+003,2.205710e+003
3.082209e+003,2.086060e+003
3.084137e+003,1.999237e+003
3.086066e+003,1.908696e+003
3.087994e+003,1.787594e+003
3.089923e+003,1.710725e+003
3.091851e+003,1.642160e+003
3.093780e+003,1.588406e+003
3.095708e+003,1.560679e+003
3.097637e+003,1.537240e+003
3.099565e+003,1.523132e+003
3.101494e+003,1.509813e+003
3.103422e+003,1.507254e+003
3.105351e+003,1.494046e+003
3.107279e+003,1.463010e+003
3.109208e+003,1.433043e+003
3.111136e+003,1.408986e+003
3.113064e+003,1.383008e+003
3.114993e+003,1.360086e+003
3.116921e+003,1.351570e+003
3.118850e+003,1.346213e+003
3.120778e+003,1.338548e+003
3.122707e+003,1.325546e+003
3.124635e+003,1.298160e+003
3.126564e+003,1.298325e+003
3.128492e+003,1.304499e+003
3.130421e+003,1.303793e+003
3.132349e+003,1.289556e+003
3.134278e+003,1.295110e+003
3.136206e+003,1.290457e+003
3.138135e+003,1.284679e+003
3.140063e+003,1.310595e+003
3.141991e+003,1.293053e+003
3.143920e+003,1.304575e+003
3.145848e+003,1.294271e+003
3.147777e+003,1.300442e+003
3.149705e+003,1.310312e+003
3.151634e+003,1.313882e+003
3.153562e+003,1.333720e+003
3.155491e+003,1.351619e+003
3.157419e+003,1.398993e+003
3.159348e+003,1.443731e+003
3.161276e+003,1.489784e+003
3.163205e+003,1.520105e+003
3.165133e+003,1.482538e+003
3.167062e+003,1.422067e+003
3.168990e+003,1.387944e+003
3.170918e+003,1.344198e+003
3.172847e+003,1.315009e+003
3.174775e+003,1.311166e+003
3.176704e+003,1.298421e+003
3.178632e+003,1.297257e+003
3.180561e+003,1.293497e+003
3.182489e+003,1.300744e+003
3.184418e+003,1.308487e+003
3.186346e+003,1.304518e+003
3.188275e+003,1.324776e+003
3.190203e+003,1.352150e+003
3.192132e+003,1.359545e+003
3.194060e+003,1.377577e+003
3.195989e+003,1.419125e+003
3.197917e+003,1.441046e+003
3.199845e+003,1.451211e+003
3.201774e+003,1.445260e+003
3.203702e+003,1.446403e+003
3.205631e+003,1.416589e+003
3.207559e+003,1.383044e+003
3.209488e+003,1.344152e+003
3.211416e+003,1.329691e+003
3.213345e+003,1.320197e+003
3.215273e+003,1.283122e+003
3.217202e+003,1.277994e+003
3.219130e+003,1.278049e+003
3.221059e+003,1.265575e+003
3.222987e+003,1.266969e+003
3.224916e+003,1.261495e+003
3.226844e+003,1.259577e+003
3.228772e+003,1.271141e+003
3.230701e+003,1.290797e+003
3.232629e+003,1.278053e+003
3.234558e+003,1.260272e+003
3.236486e+003,1.261325e+003
3.238415e+003,1.273052e+003
3.240343e+003,1.264389e+003
3.242272e+003,1.252833e+003
3.244200e+003,1.264914e+003
3.246129e+003,1.286865e+003
3.248057e+003,1.287508e+003
3.249986e+003,1.275418e+003
3.251914e+003,1.274574e+003
3.253843e+003,1.268856e+003
3.255771e+003,1.292474e+003
3.257699e+003,1.283855e+003
3.259628e+003,1.277232e+003
3.261556e+003,1.283570e+003
3.263485e+003,1.281203e+003
3.265413e+003,1.280070e+003
3.267342e+003,1.267998e+003
3.269270e+003,1.277802e+003
3.271199e+003,1.276310e+003
3.273127e+003,1.274289e+003
3.275056e+003,1.287279e+003
3.276984e+003,1.285677e+003
3.278913e+003,1.278636e+003
3.280841e+003,1.281737e+003
3.282770e+003,1.291334e+003
3.284698e+003,1.296784e+003
3.286626e+003,1.291854e+003
3.288555e+003,1.282358e+003
3.290483e+003,1.286937e+003
3.292412e+003,1.285655e+003
3.294340e+003,1.286168e+003
3.296269e+003,1.300873e+003
3.298197e+003,1.304714e+003
3.300126e+003,1.311683e+003
3.302054e+003,1.309648e+003
3.303983e+003,1.299372e+003
3.305911e+003,1.296166e+003
3.307840e+003,1.296074e+003
3.309768e+003,1.301326e+003
3.311697e+003,1.311390e+003
3.313625e+003,1.309221e+003
3.315553e+003,1.301511e+003
3.317482e+003,1.306814e+003
3.319410e+003,1.313883e+003
3.321339e+003,1.297228e+003
3.323267e+003,1.306846e+003
3.325196e+003,1.300635e+003
3.327124e+003,1.301561e+003
3.329053e+003,1.313709e+003
3.330981e+003,1.318921e+003
3.332910e+003,1.313982e+003
3.334838e+003,1.323615e+003
3.336767e+003,1.323358e+003
3.338695e+003,1.319505e+003
3.340624e+003,1.323371e+003
3.342552e+003,1.326350e+003
3.344480e+003,1.319881e+003
3.346409e+003,1.315821e+003
3.348337e+003,1.324112e+003
3.350266e+003,1.327656e+003
3.352194e+003,1.337062e+003
3.354123e+003,1.326350e+003
3.356051e+003,1.325131e+003
3.357980e+003,1.320726e+003
3.359908e+003,1.316968e+003
3.361837e+003,1.332915e+003
3.363765e+003,1.339956e+003
3.365694e+003,1.327653e+003
3.367622e+003,1.337209e+003
3.369551e+003,1.335057e+003
3.371479e+003,1.335902e+003
3.373407e+003,1.339855e+003
3.375336e+003,1.350858e+003
3.377264e+003,1.354283e+003
3.379193e+003,1.340736e+003
3.381121e+003,1.342148e+003
3.383050e+003,1.344297e+003
3.384978e+003,1.358832e+003
3.386907e+003,1.348023e+003
3.388835e+003,1.344706e+003
3.390764e+003,1.357907e+003
3.392692e+003,1.362425e+003
3.394621e+003,1.348698e+003
3.396549e+003,1.338079e+003
3.398478e+003,1.349141e+003
3.400406e+003,1.354624e+003
