5.065916e+001,2.667577e+003
5.258762e+001,2.577107e+003
5.451609e+001,2.494590e+003
5.644456e+001,2.476965e+003
5.837302e+001,2.469455e+003
6.030149e+001,2.382805e+003
6.222996e+001,2.292032e+003
6.415842e+001,2.242197e+003
6.608689e+001,2.203577e+003
6.801536e+001,2.169588e+003
6.994382e+001,2.166957e+003
7.187229e+001,2.108932e+003
7.380076e+001,2.047631e+003
7.572923e+001,1.996404e+003
7.765769e+001,1.949188e+003
7.958616e+001,1.876650e+003
8.151463e+001,1.801822e+003
8.344309e+001,1.751139e+003
8.537156e+001,1.707708e+003
8.730003e+001,1.634309e+003
8.922849e+001,1.518719e+003
9.115696e+001,1.408655e+003
9.308543e+001,1.285421e+003
9.501389e+001,1.157152e+003
9.694236e+001,1.062490e+003
9.887083e+001,9.726855e+002
1.007993e+002,8.813215e+002
1.027278e+002,8.009974e+002
1.046562e+002,7.412679e+002
1.065847e+002,6.967450e+002
1.085132e+002,6.441111e+002
1.104416e+002,5.893202e+002
1.123701e+002,5.325859e+002
1.142986e+002,4.769387e+002
1.162270e+002,4.430297e+002
1.181555e+002,4.183811e+002
1.200840e+002,3.831677e+002
1.220124e+002,3.423661e+002
1.239409e+002,3.154360e+002
1.258694e+002,2.980543e+002
1.277978e+002,2.741707e+002
1.297263e+002,2.570754e+002
1.316548e+002,2.483000e+002
1.335832e+002,2.327413e+002
1.355117e+002,2.003450e+002
1.374402e+002,1.841121e+002
1.393686e+002,1.809495e+002
1.412971e+002,1.810470e+002
1.432256e+002,1.771272e+002
1.451540e+002,1.495469e+002
1.470825e+002,1.443778e+002
1.490110e+002,1.445652e+002
1.509394e+002,1.320193e+002
1.528679e+002,1.429666e+002
1.547964e+002,1.335037e+002
1.567248e+002,1.155984e+002
1.586533e+002,9.925037e+001
1.605818e+002,9.094128e+001
1.625102e+002,8.947375e+001
1.644387e+002,8.960803e+001
1.663672e+002,7.735413e+001
1.682956e+002,4.943384e+001
1.702241e+002,1.437708e+001
1.721526e+002,2.378418e+000
1.740810e+002,-1.299286e+001
1.760095e+002,-2.918561e+001
1.779380e+002,-4.005719e+001
1.798664e+002,-4.143750e+001
1.817949e+002,-5.374512e+001
1.837234e+002,-5.564429e+001
1.856518e+002,-5.563995e+001
1.875803e+002,-6.614130e+001
1.895088e+002,-9.443054e+001
1.914372e+002,-9.094434e+001
1.933657e+002,-9.268933e+001
1.952942e+002,-9.921851e+001
1.972226e+002,-1.026882e+002
1.991511e+002,-9.532910e+001
2.010796e+002,-8.824176e+001
2.030080e+002,-9.395007e+001
2.049365e+002,-1.066418e+002
2.068650e+002,-1.152012e+002
2.087934e+002,-1.092363e+002
2.107219e+002,-1.199948e+002
2.126504e+002,-1.175409e+002
2.145788e+002,-1.137062e+002
2.165073e+002,-1.160930e+002
2.184358e+002,-1.072535e+002
2.203642e+002,-1.155649e+002
2.222927e+002,-1.079955e+002
2.242212e+002,-9.802350e+001
2.261496e+002,-1.027388e+002
2.280781e+002,-1.196856e+002
2.300066e+002,-1.238615e+002
2.319350e+002,-1.255533e+002
2.338635e+002,-1.275490e+002
2.357920e+002,-1.282392e+002
2.377204e+002,-1.220541e+002
2.396489e+002,-1.168137e+002
2.415774e+002,-1.163448e+002
2.435058e+002,-1.173187e+002
2.454343e+002,-1.158269e+002
2.473628e+002,-1.117073e+002
2.492912e+002,-1.138355e+002
2.512197e+002,-1.101466e+002
2.531482e+002,-1.029379e+002
2.550766e+002,-1.008629e+002
2.570051e+002,-1.142229e+002
2.589336e+002,-8.951965e+001
2.608620e+002,-9.915338e+001
2.627905e+002,-1.124094e+002
2.647190e+002,-1.006632e+002
2.666474e+002,-8.861816e+001
2.685759e+002,-9.262115e+001
2.705044e+002,-9.463324e+001
2.724328e+002,-9.303070e+001
2.743613e+002,-9.139539e+001
2.762898e+002,-9.402838e+001
2.782182e+002,-9.023059e+001
2.801467e+002,-8.335010e+001
2.820752e+002,-7.756250e+001
2.840036e+002,-7.240735e+001
2.859321e+002,-6.155438e+001
2.878606e+002,-4.114984e+001
2.897890e+002,-4.643164e+001
2.917175e+002,-4.768158e+001
2.936460e+002,-3.062793e+001
2.955744e+002,-1.209399e+001
2.975029e+002,-2.696619e+001
2.994314e+002,-6.481812e+000
3.013598e+002,1.283148e+001
3.032883e+002,1.884924e+001
3.052168e+002,2.725684e+001
3.071452e+002,1.986566e+001
3.090737e+002,4.134528e+001
3.110022e+002,5.444495e+001
3.129306e+002,4.733441e+001
3.148591e+002,3.676953e+001
3.167876e+002,6.343677e+001
3.187160e+002,7.467273e+001
3.206445e+002,8.875671e+001
3.225730e+002,9.981677e+001
3.245014e+002,9.428137e+001
3.264299e+002,7.462817e+001
3.283584e+002,7.979242e+001
3.302868e+002,9.240613e+001
3.322153e+002,9.544922e+001
3.341438e+002,9.074268e+001
3.360722e+002,1.115329e+002
3.380007e+002,1.231842e+002
3.399292e+002,1.151009e+002
3.418576e+002,1.164355e+002
3.437861e+002,1.402202e+002
3.457146e+002,1.655504e+002
3.476430e+002,1.775952e+002
3.495715e+002,1.900613e+002
3.515000e+002,2.127215e+002
3.534284e+002,2.465231e+002
3.553569e+002,2.827514e+002
3.572854e+002,3.028561e+002
3.592138e+002,3.127670e+002
3.611423e+002,3.163478e+002
3.630708e+002,3.022489e+002
3.649992e+002,2.652246e+002
3.669277e+002,2.413022e+002
3.688562e+002,2.257446e+002
3.707846e+002,2.085199e+002
3.727131e+002,1.791918e+002
3.746416e+002,1.424287e+002
3.765700e+002,1.251026e+002
3.784985e+002,1.057507e+002
3.804270e+002,9.366077e+001
3.823554e+002,9.019531e+001
3.842839e+002,8.719263e+001
3.862124e+002,7.099310e+001
3.881408e+002,4.266833e+001
3.900693e+002,1.955756e+001
3.919978e+002,9.584473e+000
3.939262e+002,1.137811e+001
3.958547e+002,1.440125e+001
3.977832e+002,-1.872070e+000
3.997116e+002,-5.818054e+000
4.016401e+002,-3.341370e+000
4.035686e+002,-8.717041e+000
4.054970e+002,-2.321735e+001
4.074255e+002,-2.654175e+001
4.093540e+002,-3.941980e+001
4.112824e+002,-3.977954e+001
4.132109e+002,-2.530786e+001
4.151394e+002,-1.475696e+001
4.170678e+002,-2.843427e+001
4.189963e+002,-2.778461e+001
4.209248e+002,-2.503882e+001
4.228532e+002,-2.903107e+001
4.247817e+002,-3.387823e+001
4.267102e+002,-3.264667e+001
4.286386e+002,-3.024689e+001
4.305671e+002,-2.417188e+001
4.324956e+002,-2.328204e+001
4.344240e+002,-3.169574e+001
4.363525e+002,-4.314667e+001
4.382810e+002,-4.633472e+001
4.402094e+002,-5.326819e+001
4.421379e+002,-5.572729e+001
4.440664e+002,-4.872369e+001
4.459948e+002,-4.919678e+001
4.479233e+002,-6.255988e+001
4.498518e+002,-4.867480e+001
4.517802e+002,-4.923804e+001
4.537087e+002,-5.141339e+001
4.556372e+002,-5.099280e+001
4.575656e+002,-4.861151e+001
4.594941e+002,-4.797607e+001
4.614226e+002,-5.113556e+001
4.633510e+002,-5.759521e+001
4.652795e+002,-5.840393e+001
4.672080e+002,-5.810919e+001
4.691364e+002,-6.154834e+001
4.710649e+002,-6.079083e+001
4.729934e+002,-4.785388e+001
4.749218e+002,-4.932947e+001
4.768503e+002,-5.008246e+001
4.787788e+002,-4.223749e+001
4.807072e+002,-3.480139e+001
4.826357e+002,-4.997449e+001
4.845642e+002,-3.991235e+001
4.864926e+002,-4.086877e+001
4.884211e+002,-4.513708e+001
4.903496e+002,-3.869061e+001
4.922780e+002,-2.705688e+001
4.942065e+002,-3.287451e+001
4.961350e+002,-4.300592e+001
4.980634e+002,-4.673798e+001
4.999919e+002,-4.464825e+001
5.019204e+002,-4.280206e+001
5.038488e+002,-4.195276e+001
5.057773e+002,-6.106104e+001
5.077058e+002,-3.941315e+001
5.096342e+002,-2.919250e+001
5.115627e+002,-4.153668e+001
5.134912e+002,-3.383423e+001
5.154197e+002,-3.866827e+001
5.173481e+002,-2.004364e+001
5.192766e+002,-2.532617e+001
5.212051e+002,-3.312756e+001
5.231335e+002,-2.335278e+001
5.250620e+002,-1.883551e+001
5.269905e+002,-1.368073e+001
5.289189e+002,-9.384827e+000
5.308474e+002,-4.266846e+000
5.327759e+002,3.667297e+000
5.347043e+002,1.276990e+001
5.366328e+002,1.490027e+001
5.385613e+002,2.269318e+001
5.404897e+002,5.446594e+001
5.424182e+002,7.357477e+001
5.443467e+002,8.707935e+001
5.462751e+002,1.172802e+002
5.482036e+002,1.009659e+002
5.501321e+002,8.978430e+001
5.520605e+002,7.494330e+001
5.539890e+002,5.553094e+001
5.559175e+002,3.102979e+001
5.578459e+002,6.637268e+000
5.597744e+002,1.905377e+001
5.617029e+002,2.945905e+001
5.636313e+002,3.011737e+001
5.655598e+002,2.786908e+001
5.674883e+002,2.677069e+001
5.694167e+002,2.281207e+001
5.713452e+002,2.603265e+001
5.732737e+002,3.232690e+001
5.752021e+002,3.192944e+001
5.771306e+002,2.828656e+001
5.790591e+002,3.137079e+001
5.809875e+002,4.705389e+001
5.829160e+002,4.739026e+001
5.848445e+002,5.080798e+001
5.867729e+002,5.276178e+001
5.887014e+002,6.442877e+001
5.906299e+002,9.070911e+001
5.925583e+002,1.131647e+002
5.944868e+002,1.318815e+002
5.964153e+002,1.503715e+002
5.983438e+002,1.926183e+002
6.002722e+002,2.546270e+002
6.022007e+002,3.177416e+002
6.041292e+002,3.723921e+002
6.060576e+002,4.542231e+002
6.079861e+002,5.432356e+002
6.099146e+002,5.821597e+002
6.118430e+002,6.086877e+002
6.137715e+002,6.625589e+002
6.157000e+002,6.870909e+002
6.176284e+002,7.236177e+002
6.195569e+002,7.511476e+002
6.214854e+002,7.525934e+002
6.234138e+002,7.582711e+002
6.253423e+002,7.946172e+002
6.272708e+002,8.357854e+002
6.291992e+002,9.077953e+002
6.311277e+002,9.893736e+002
6.330562e+002,1.053775e+003
6.349846e+002,1.091838e+003
6.369131e+002,1.099906e+003
6.388416e+002,1.068675e+003
6.407700e+002,1.010034e+003
6.426985e+002,9.556768e+002
6.446270e+002,8.844832e+002
6.465554e+002,7.995867e+002
6.484839e+002,7.167971e+002
6.504124e+002,6.463168e+002
6.523408e+002,5.838623e+002
6.542693e+002,5.046210e+002
6.561978e+002,4.223566e+002
6.581262e+002,3.661842e+002
6.600547e+002,3.316110e+002
6.619832e+002,2.834847e+002
6.639116e+002,2.892159e+002
6.658401e+002,3.094584e+002
6.677686e+002,3.195443e+002
6.696970e+002,3.362084e+002
6.716255e+002,3.713714e+002
6.735540e+002,4.133585e+002
6.754824e+002,4.425258e+002
6.774109e+002,4.858090e+002
6.793394e+002,5.493284e+002
6.812678e+002,6.078442e+002
6.831963e+002,6.561836e+002
6.851248e+002,7.065292e+002
6.870532e+002,7.511982e+002
6.889817e+002,7.818184e+002
6.909102e+002,7.995496e+002
6.928386e+002,8.101008e+002
6.947671e+002,8.102183e+002
6.966956e+002,7.987602e+002
6.986240e+002,7.861788e+002
7.005525e+002,7.315748e+002
7.024810e+002,6.882019e+002
7.044094e+002,6.504379e+002
7.063379e+002,5.988724e+002
7.082664e+002,5.283175e+002
7.101948e+002,4.571755e+002
7.121233e+002,3.957717e+002
7.140518e+002,3.408790e+002
7.159802e+002,2.890753e+002
7.179087e+002,2.433468e+002
7.198372e+002,2.039894e+002
7.217656e+002,1.681932e+002
7.236941e+002,1.374629e+002
7.256226e+002,1.202286e+002
7.275510e+002,1.193651e+002
7.294795e+002,1.032758e+002
7.314080e+002,7.870392e+001
7.333364e+002,6.361926e+001
7.352649e+002,4.554785e+001
7.371934e+002,1.769629e+001
7.391218e+002,2.332642e+000
7.410503e+002,5.279724e+000
7.429788e+002,1.156879e+001
7.449072e+002,6.668762e+000
7.468357e+002,-7.864929e+000
7.487642e+002,-9.643616e+000
7.506926e+002,-1.365387e+001
7.526211e+002,-2.154980e+001
7.545496e+002,-2.164911e+001
7.564780e+002,-2.094617e+001
7.584065e+002,-2.495508e+001
7.603350e+002,-1.392224e+001
7.622634e+002,-1.458374e+001
7.641919e+002,-1.704431e+001
7.661204e+002,-2.003967e+001
7.680488e+002,-2.640027e+001
7.699773e+002,-3.565021e+001
7.719058e+002,-4.167468e+001
7.738342e+002,-3.771307e+001
7.757627e+002,-4.474280e+001
7.776912e+002,-5.484369e+001
7.796196e+002,-4.520673e+001
7.815481e+002,-3.388416e+001
7.834766e+002,-4.242236e+001
7.854050e+002,-5.261127e+001
7.873335e+002,-3.551019e+001
7.892620e+002,-2.946613e+001
7.911904e+002,-3.709479e+001
7.931189e+002,-3.539795e+001
7.950474e+002,-2.424286e+001
7.969758e+002,-2.484949e+001
7.989043e+002,-4.211743e+001
8.008328e+002,-3.592755e+001
8.027612e+002,-3.443768e+001
8.046897e+002,-3.634027e+001
8.066182e+002,-2.952338e+001
8.085466e+002,-1.305817e+001
8.104751e+002,-4.824829e-001
8.124036e+002,3.876648e+000
8.143320e+002,4.812256e+000
8.162605e+002,-6.808350e+000
8.181890e+002,-1.797815e+001
8.201174e+002,-2.435718e+001
8.220459e+002,-2.616333e+001
8.239744e+002,-1.793689e+001
8.259028e+002,1.514850e+001
8.278313e+002,1.621997e+001
8.297598e+002,2.386426e+001
8.316882e+002,2.454639e+001
8.336167e+002,1.795709e+001
8.355452e+002,1.745654e+001
8.374736e+002,2.618115e+001
8.394021e+002,2.629041e+001
8.413306e+002,1.759589e+001
8.432590e+002,1.552332e+001
8.451875e+002,1.574756e+001
8.471160e+002,1.132532e+001
8.490444e+002,6.957886e+000
8.509729e+002,1.872607e+001
8.529014e+002,1.880798e+001
8.548298e+002,2.104041e+001
8.567583e+002,9.364746e+000
8.586868e+002,-2.039551e+000
8.606152e+002,-3.954224e+000
8.625437e+002,-2.328735e+000
8.644722e+002,-6.015015e+000
8.664006e+002,-3.952637e+000
8.683291e+002,1.261108e+000
8.702576e+002,6.737549e+000
8.721860e+002,4.905762e+000
8.741145e+002,-1.761597e+000
8.760430e+002,-6.118652e+000
8.779714e+002,-1.093140e+001
8.798999e+002,-1.691052e+001
8.818284e+002,-1.816187e+001
8.837568e+002,-1.787292e+001
8.856853e+002,-1.903601e+001
8.876138e+002,-2.243701e+001
8.895422e+002,-2.655579e+001
8.914707e+002,-2.882837e+001
8.933992e+002,-2.742249e+001
8.953276e+002,-2.966748e+001
8.972561e+002,-2.678430e+001
8.991846e+002,-2.636780e+001
9.011130e+002,-2.609595e+001
9.030415e+002,-2.094592e+001
9.049700e+002,-1.833777e+001
9.068984e+002,-2.173572e+001
9.088269e+002,-2.413977e+001
9.107554e+002,-1.607690e+001
9.126838e+002,-9.402100e+000
9.146123e+002,-1.121985e+001
9.165408e+002,-1.299268e+001
9.184692e+002,-5.718262e+000
9.203977e+002,-2.847998e+001
9.223262e+002,-2.129358e+001
9.242546e+002,-3.559778e+001
9.261831e+002,-3.633887e+001
9.281116e+002,-2.572778e+001
9.300400e+002,-2.383667e+001
9.319685e+002,-3.069519e+001
9.338970e+002,-1.870605e+001
9.358254e+002,-2.242639e+001
9.377539e+002,-3.469690e+001
9.396824e+002,-3.534314e+001
9.416108e+002,-3.356653e+001
9.435393e+002,-3.162964e+001
9.454678e+002,-2.205823e+001
9.473962e+002,-1.231848e+001
9.493247e+002,-2.611475e+001
9.512532e+002,-2.358203e+001
9.531816e+002,-1.841162e+001
9.551101e+002,-2.778931e+000
9.570386e+002,7.334351e+000
9.589670e+002,5.476318e+000
9.608955e+002,1.324243e+001
9.628240e+002,1.441443e+001
9.647524e+002,2.170020e+001
9.666809e+002,3.016980e+001
9.686094e+002,3.312488e+001
9.705378e+002,2.444946e+001
9.724663e+002,1.215747e+001
9.743948e+002,5.540894e+000
9.763232e+002,-7.437866e+000
9.782517e+002,-1.244470e+001
9.801802e+002,-5.728638e+000
9.821086e+002,-7.201904e+000
9.840371e+002,-2.980347e+000
9.859656e+002,-3.312988e-001
9.878940e+002,-4.248779e+000
9.898225e+002,4.558838e+000
9.917510e+002,3.334229e+001
9.936794e+002,4.367493e+001
9.956079e+002,9.052686e+001
9.975364e+002,1.885375e+002
9.994648e+002,2.771088e+002
1.001393e+003,2.801888e+002
1.003322e+003,1.883970e+002
1.005250e+003,8.719495e+001
1.007179e+003,3.471814e+001
1.009107e+003,1.653662e+001
1.011036e+003,5.074951e+000
1.012964e+003,-5.076050e+000
1.014893e+003,-5.784546e+000
1.016821e+003,-2.239746e+000
1.018750e+003,-1.078442e+001
1.020678e+003,-2.586169e+001
1.022606e+003,6.314819e+000
1.024535e+003,1.351538e+001
1.026463e+003,2.208289e+001
1.028392e+003,3.004028e+001
1.030320e+003,3.232617e+001
1.032249e+003,2.831885e+001
1.034177e+003,1.989160e+001
1.036106e+003,5.870239e+000
1.038034e+003,-2.533423e+001
1.039963e+003,-4.445422e+001
1.041891e+003,-4.372705e+001
1.043820e+003,-3.902673e+001
1.045748e+003,-4.116943e+001
1.047677e+003,-4.787134e+001
1.049605e+003,-5.172412e+001
1.051533e+003,-5.249072e+001
1.053462e+003,-4.108545e+001
1.055390e+003,-2.641541e+001
1.057319e+003,-3.157349e+001
1.059247e+003,-3.403967e+001
1.061176e+003,-3.008875e+001
1.063104e+003,-2.623108e+001
1.065033e+003,-2.342346e+001
1.066961e+003,-2.846594e+001
1.068890e+003,-2.883154e+001
1.070818e+003,-1.180042e+001
1.072747e+003,3.907715e+000
1.074675e+003,1.547473e+001
1.076604e+003,2.396252e+001
1.078532e+003,3.169263e+001
1.080460e+003,4.181787e+001
1.082389e+003,5.330847e+001
1.084317e+003,4.400586e+001
1.086246e+003,4.750537e+001
1.088174e+003,5.783118e+001
1.090103e+003,6.859546e+001
1.092031e+003,7.166626e+001
1.093960e+003,7.115063e+001
1.095888e+003,7.841113e+001
1.097817e+003,9.116064e+001
1.099745e+003,8.968848e+001
1.101674e+003,9.042346e+001
1.103602e+003,9.035315e+001
1.105531e+003,9.494592e+001
1.107459e+003,9.535095e+001
1.109387e+003,8.476514e+001
1.111316e+003,7.313940e+001
1.113244e+003,7.766211e+001
1.115173e+003,8.759192e+001
1.117101e+003,1.002799e+002
1.119030e+003,1.276614e+002
1.120958e+003,1.012596e+002
1.122887e+003,8.305603e+001
1.124815e+003,7.475439e+001
1.126744e+003,5.534973e+001
1.128672e+003,3.164209e+001
1.130601e+003,-1.671143e+000
1.132529e+003,-2.192517e+001
1.134458e+003,-6.119873e+001
1.136386e+003,-8.530176e+001
1.138314e+003,-9.109729e+001
1.140243e+003,-8.979309e+001
1.142171e+003,-8.955676e+001
1.144100e+003,-9.319409e+001
1.146028e+003,-1.005065e+002
1.147957e+003,-1.024426e+002
1.149885e+003,-1.003568e+002
1.151814e+003,-8.348596e+001
1.153742e+003,-8.166199e+001
1.155671e+003,-8.904993e+001
1.157599e+003,-7.873962e+001
1.159528e+003,-6.443713e+001
1.161456e+003,-5.906836e+001
1.163385e+003,-1.542493e+001
1.165313e+003,2.109875e+001
1.167241e+003,3.432275e+001
1.169170e+003,4.830908e+001
1.171098e+003,5.239246e+001
1.173027e+003,4.287354e+001
1.174955e+003,4.052100e+001
1.176884e+003,5.715613e+001
1.178812e+003,7.590942e+001
1.180741e+003,7.383838e+001
1.182669e+003,5.018884e+001
1.184598e+003,5.665515e+001
1.186526e+003,3.772571e+001
1.188455e+003,3.884399e+001
1.190383e+003,4.244434e+001
1.192312e+003,3.152197e+001
1.194240e+003,2.339148e+001
1.196168e+003,2.675256e+001
1.198097e+003,2.813965e+000
1.200025e+003,1.273804e+000
1.201954e+003,-4.915039e+000
1.203882e+003,-1.948694e+001
1.205811e+003,-3.221167e+001
1.207739e+003,-4.745520e+001
1.209668e+003,-5.459778e+001
1.211596e+003,-5.556934e+001
1.213525e+003,-6.474072e+001
1.215453e+003,-7.264233e+001
1.217382e+003,-7.739673e+001
1.219310e+003,-1.000970e+002
1.221239e+003,-9.947400e+001
1.223167e+003,-8.845410e+001
1.225095e+003,-9.188745e+001
1.227024e+003,-8.408740e+001
1.228952e+003,-6.772241e+001
1.230881e+003,-7.177112e+001
1.232809e+003,-8.138501e+001
1.234738e+003,-7.790503e+001
1.236666e+003,-7.667480e+001
1.238595e+003,-7.481763e+001
1.240523e+003,-5.803894e+001
1.242452e+003,-5.064709e+001
1.244380e+003,-5.081738e+001
1.246309e+003,-4.110156e+001
1.248237e+003,-2.961975e+001
1.250166e+003,-3.720862e+001
1.252094e+003,-3.363440e+001
1.254022e+003,-9.877930e+000
1.255951e+003,-1.720825e+000
1.257879e+003,3.111572e+000
1.259808e+003,5.275269e+000
1.261736e+003,4.166016e+000
1.263665e+003,-3.678101e+000
1.265593e+003,-4.925781e+000
1.267522e+003,1.151074e+001
1.269450e+003,2.508203e+001
1.271379e+003,2.283020e+001
1.273307e+003,2.657983e+001
1.275236e+003,5.517212e+000
1.277164e+003,2.025513e+000
1.279093e+003,-8.976318e+000
1.281021e+003,-1.129053e+001
1.282949e+003,-1.236414e+001
1.284878e+003,-1.115417e+001
1.286806e+003,4.906372e+000
1.288735e+003,1.458667e+001
1.290663e+003,5.416309e+001
1.292592e+003,7.031921e+001
1.294520e+003,9.143555e+001
1.296449e+003,1.097212e+002
1.298377e+003,1.221594e+002
1.300306e+003,1.401006e+002
1.302234e+003,1.624763e+002
1.304163e+003,1.791003e+002
1.306091e+003,1.891912e+002
1.308020e+003,1.956946e+002
1.309948e+003,1.742156e+002
1.311876e+003,1.570922e+002
1.313805e+003,1.876907e+002
1.315733e+003,1.788608e+002
1.317662e+003,1.647922e+002
1.319590e+003,1.664822e+002
1.321519e+003,1.678115e+002
1.323447e+003,1.610581e+002
1.325376e+003,1.601652e+002
1.327304e+003,1.672316e+002
1.329233e+003,1.739478e+002
1.331161e+003,1.830994e+002
1.333090e+003,1.789950e+002
1.335018e+003,1.491537e+002
1.336947e+003,1.230796e+002
1.338875e+003,9.702063e+001
1.340803e+003,6.773792e+001
1.342732e+003,5.153674e+001
1.344660e+003,4.556287e+001
1.346589e+003,2.209082e+001
1.348517e+003,2.714111e+000
1.350446e+003,-1.298706e+001
1.352374e+003,-1.254895e+001
1.354303e+003,1.513184e+000
1.356231e+003,-2.360474e+000
1.358160e+003,-1.760437e+001
1.360088e+003,-2.622974e+001
1.362017e+003,-3.158765e+001
1.363945e+003,-4.205212e+001
1.365874e+003,-4.915149e+001
1.367802e+003,-4.967078e+001
1.369730e+003,-7.425549e+001
1.371659e+003,-5.840601e+001
1.373587e+003,-7.048267e+001
1.375516e+003,-6.901221e+001
1.377444e+003,-9.134741e+001
1.379373e+003,-9.172791e+001
1.381301e+003,-7.305933e+001
1.383230e+003,-7.141675e+001
1.385158e+003,-8.522119e+001
1.387087e+003,-8.887769e+001
1.389015e+003,-9.617749e+001
1.390944e+003,-1.071105e+002
1.392872e+003,-1.110198e+002
1.394801e+003,-1.144797e+002
1.396729e+003,-1.186123e+002
1.398657e+003,-1.081395e+002
1.400586e+003,-1.029524e+002
1.402514e+003,-1.029894e+002
1.404443e+003,-9.468127e+001
1.406371e+003,-7.648718e+001
1.408300e+003,-5.859766e+001
1.410228e+003,-3.939941e+001
1.412157e+003,-1.086548e+000
1.414085e+003,2.916760e+001
1.416014e+003,6.912695e+001
1.417942e+003,1.124697e+002
1.419871e+003,1.564531e+002
1.421799e+003,2.252535e+002
1.423728e+003,3.231583e+002
1.425656e+003,4.080688e+002
1.427584e+003,4.370569e+002
1.429513e+003,4.264233e+002
1.431441e+003,4.276327e+002
1.433370e+003,4.385104e+002
1.435298e+003,4.554193e+002
1.437227e+003,4.259113e+002
1.439155e+003,3.434672e+002
1.441084e+003,2.592649e+002
1.443012e+003,1.989608e+002
1.444941e+003,1.544526e+002
1.446869e+003,1.123560e+002
1.448798e+003,7.089038e+001
1.450726e+003,4.367676e+001
1.452655e+003,3.790955e+001
1.454583e+003,3.086169e+001
1.456511e+003,6.801758e-001
1.458440e+003,-2.278430e+001
1.460368e+003,-7.868896e+000
1.462297e+003,-4.127527e+001
1.464225e+003,-4.535266e+001
1.466154e+003,-4.956750e+001
1.468082e+003,-5.841943e+001
1.470011e+003,-5.519812e+001
1.471939e+003,-5.468958e+001
1.473868e+003,-6.047644e+001
1.475796e+003,-5.745850e+001
1.477725e+003,-6.026685e+001
1.479653e+003,-5.674707e+001
1.481582e+003,-6.004468e+001
1.483510e+003,-5.072363e+001
1.485438e+003,-4.039124e+001
1.487367e+003,-4.828943e+001
1.489295e+003,-3.517590e+001
1.491224e+003,-2.326660e+001
1.493152e+003,-2.605176e+001
1.495081e+003,-2.570776e+001
1.497009e+003,-1.659204e+001
1.498938e+003,-9.315186e+000
1.500866e+003,-4.224487e+000
1.502795e+003,-2.492310e+000
1.504723e+003,4.717163e+000
1.506652e+003,1.314636e+001
1.508580e+003,2.138721e+001
1.510509e+003,2.191675e+001
1.512437e+003,1.833533e+001
1.514365e+003,1.409277e+001
1.516294e+003,6.413574e+000
1.518222e+003,-7.011108e+000
1.520151e+003,-2.136902e+001
1.522079e+003,-2.863708e+001
1.524008e+003,-2.451306e+001
1.525936e+003,-1.942188e+001
1.527865e+003,-3.380493e+001
1.529793e+003,-3.750635e+001
1.531722e+003,-4.383447e+001
1.533650e+003,-4.182910e+001
1.535579e+003,-3.522400e+001
1.537507e+003,-3.191492e+001
1.539436e+003,-4.274805e+001
1.541364e+003,-5.140869e+001
1.543292e+003,-4.656409e+001
1.545221e+003,-4.019434e+001
1.547149e+003,-4.894055e+001
1.549078e+003,-6.776294e+001
1.551006e+003,-6.942285e+001
1.552935e+003,-4.514539e+001
1.554863e+003,-4.151953e+001
1.556792e+003,-3.787561e+001
1.558720e+003,-3.435999e+001
1.560649e+003,-4.504407e+001
1.562577e+003,-4.017834e+001
1.564506e+003,-3.986597e+001
1.566434e+003,-4.748608e+001
1.568363e+003,-3.549280e+001
1.570291e+003,-2.922400e+001
1.572219e+003,-3.819092e+001
1.574148e+003,-4.054761e+001
1.576076e+003,-3.319922e+001
1.578005e+003,-2.357629e+001
1.579933e+003,-7.532959e+000
1.581862e+003,-9.043945e+000
1.583790e+003,-2.870483e+000
1.585719e+003,-9.084961e+000
1.587647e+003,-3.208875e+001
1.589576e+003,-2.718042e+001
1.591504e+003,-2.631958e+001
1.593433e+003,-1.433984e+001
1.595361e+003,-7.722656e+000
1.597290e+003,5.252563e+000
1.599218e+003,3.200085e+001
1.601146e+003,5.698584e+001
1.603075e+003,5.936133e+001
1.605003e+003,3.653516e+001
1.606932e+003,1.737952e+001
1.608860e+003,1.862598e+001
1.610789e+003,4.813965e+000
1.612717e+003,-1.507275e+001
1.614646e+003,-2.880933e+001
1.616574e+003,-2.933350e+000
1.618503e+003,-4.163818e+000
1.620431e+003,-3.140039e+001
1.622360e+003,-2.256885e+001
1.624288e+003,-9.503296e+000
1.626217e+003,-3.762939e+000
1.628145e+003,3.171143e+000
1.630073e+003,9.215820e+000
1.632002e+003,1.664624e+001
1.633930e+003,3.081006e+001
1.635859e+003,4.141174e+001
1.637787e+003,4.450220e+001
1.639716e+003,5.655750e+001
1.641644e+003,6.121082e+001
1.643573e+003,6.410889e+001
1.645501e+003,6.627771e+001
1.647430e+003,6.594043e+001
1.649358e+003,7.051233e+001
1.651287e+003,9.441833e+001
1.653215e+003,1.066857e+002
1.655144e+003,1.011226e+002
1.657072e+003,1.019869e+002
1.659000e+003,1.217949e+002
1.660929e+003,1.587892e+002
1.662857e+003,2.043213e+002
1.664786e+003,2.422844e+002
1.666714e+003,2.639786e+002
1.668643e+003,2.541083e+002
1.670571e+003,1.862732e+002
1.672500e+003,1.310681e+002
1.674428e+003,8.469983e+001
1.676357e+003,5.462732e+001
1.678285e+003,5.808411e+001
1.680214e+003,2.554651e+001
1.682142e+003,2.197791e+001
1.684071e+003,1.632935e+001
1.685999e+003,4.209351e+000
1.687927e+003,2.073242e+000
1.689856e+003,-1.143799e-001
1.691784e+003,-8.379272e+000
1.693713e+003,-5.090698e+000
1.695641e+003,8.239380e+000
1.697570e+003,-1.610107e-001
1.699498e+003,-2.524097e+001
1.701427e+003,-1.578809e+001
1.703355e+003,-3.800415e+000
1.705284e+003,-1.527722e+001
1.707212e+003,2.528320e+000
1.709141e+003,-9.987671e+000
1.711069e+003,-1.631067e+001
1.712998e+003,-1.545166e+001
1.714926e+003,-6.778809e+000
1.716854e+003,-3.711548e+000
1.718783e+003,-2.538696e+000
1.720711e+003,6.188477e+000
1.722640e+003,1.463159e+001
1.724568e+003,1.311072e+001
1.726497e+003,2.953003e+000
1.728425e+003,-5.026733e+000
1.730354e+003,3.762573e+000
1.732282e+003,2.355530e+001
1.734211e+003,2.513721e+001
1.736139e+003,1.812048e+001
1.738068e+003,2.152527e+001
1.739996e+003,2.429333e+001
1.741925e+003,1.391101e+001
1.743853e+003,1.858582e+001
1.745781e+003,2.602234e+001
1.747710e+003,2.700085e+001
1.749638e+003,1.271777e+001
1.751567e+003,-6.464355e+000
1.753495e+003,-1.107153e+001
1.755424e+003,-3.210938e+000
1.757352e+003,1.311060e+001
1.759281e+003,-4.805542e+000
1.761209e+003,-6.055542e+000
1.763138e+003,5.817749e+000
1.765066e+003,-8.078491e+000
1.766995e+003,-8.836670e-001
1.768923e+003,7.884766e+000
1.770852e+003,-9.309692e+000
1.772780e+003,-3.106445e+000
1.774708e+003,7.896729e-001
1.776637e+003,2.432007e+000
1.778565e+003,-3.995605e+000
1.780494e+003,-1.205347e+001
1.782422e+003,-5.107300e+000
1.784351e+003,-3.187500e+000
1.786279e+003,-5.741577e+000
1.788208e+003,1.699341e+000
1.790136e+003,-1.019922e+001
1.792065e+003,-8.164185e+000
1.793993e+003,-2.374695e+001
1.795922e+003,-2.613159e+000
1.797850e+003,-4.523926e-001
1.799779e+003,-9.580688e+000
1.801707e+003,-8.124023e+000
1.803635e+003,-7.024414e+000
1.805564e+003,1.014771e+000
1.807492e+003,2.394165e+000
1.809421e+003,-9.016479e+000
1.811349e+003,-1.516138e+001
1.813278e+003,-1.092920e+001
1.815206e+003,-2.488525e+000
1.817135e+003,7.311523e+000
1.819063e+003,9.719971e+000
1.820992e+003,-7.972656e+000
1.822920e+003,-7.592773e-001
1.824849e+003,4.411621e+000
1.826777e+003,-8.621704e+000
1.828706e+003,6.240234e-001
1.830634e+003,8.469116e+000
1.832563e+003,3.368286e+000
1.834491e+003,-7.462158e-001
1.836419e+003,3.338013e+000
1.838348e+003,3.021851e+000
1.840276e+003,-6.632080e+000
1.842205e+003,-6.245972e+000
1.844133e+003,7.398315e+000
1.846062e+003,3.853394e+000
1.847990e+003,-4.863892e+000
1.849919e+003,1.340576e+000
1.851847e+003,-1.122803e+000
1.853776e+003,-2.065552e+000
1.855704e+003,7.875244e+000
1.857633e+003,4.134521e-001
1.859561e+003,-3.446167e+000
1.861490e+003,-3.078369e+000
1.863418e+003,2.343018e+000
1.865346e+003,-7.023926e-001
1.867275e+003,-1.054980e+001
1.869203e+003,-7.691406e+000
1.871132e+003,2.579956e+000
1.873060e+003,7.986816e+000
1.874989e+003,5.594116e+000
1.876917e+003,8.739136e+000
1.878846e+003,5.769653e+000
1.880774e+003,-1.205750e+001
1.882703e+003,-2.831421e+000
1.884631e+003,9.609375e-001
1.886560e+003,6.259888e+000
1.888488e+003,1.011731e+001
1.890417e+003,1.752246e+001
1.892345e+003,1.585376e+001
1.894273e+003,5.883789e-001
1.896202e+003,-2.070435e+000
1.898130e+003,-1.243726e+001
1.900059e+003,-1.296313e+001
1.901987e+003,1.185034e+001
1.903916e+003,1.185876e+001
1.905844e+003,1.135864e+001
1.907773e+003,-3.315552e+000
1.909701e+003,2.323853e+000
1.911630e+003,6.681030e+000
1.913558e+003,4.107422e+000
1.915487e+003,1.096252e+001
1.917415e+003,8.221191e+000
1.919344e+003,-1.388135e+001
1.921272e+003,-1.627722e+001
1.923200e+003,-9.744873e-001
1.925129e+003,7.527344e+000
1.927057e+003,2.316650e+001
1.928986e+003,-1.343079e+001
1.930914e+003,-2.171021e+000
1.932843e+003,-1.068323e+001
1.934771e+003,-4.047974e+000
1.936700e+003,-1.072351e+001
1.938628e+003,6.093506e+000
1.940557e+003,1.303931e+001
1.942485e+003,1.856226e+001
1.944414e+003,1.114661e+001
1.946342e+003,-1.505615e+000
1.948271e+003,3.085571e+000
1.950199e+003,1.064709e+001
1.952127e+003,2.494995e+000
1.954056e+003,6.618164e+000
1.955984e+003,9.716309e+000
1.957913e+003,1.037598e-002
1.959841e+003,1.158630e+001
1.961770e+003,2.657654e+001
1.963698e+003,1.493750e+001
1.965627e+003,4.375732e+000
1.967555e+003,2.390137e-001
1.969484e+003,-7.136597e+000
1.971412e+003,2.819824e-001
1.973341e+003,-5.337280e+000
1.975269e+003,-6.593506e+000
1.977198e+003,-4.683716e+000
1.979126e+003,-3.039307e+000
1.981054e+003,5.715576e+000
1.982983e+003,3.108643e+000
1.984911e+003,2.751343e+000
1.986840e+003,1.808911e+001
1.988768e+003,-3.163574e+000
1.990697e+003,5.022461e+000
1.992625e+003,-1.311768e+001
1.994554e+003,-6.380615e+000
1.996482e+003,-6.100952e+000
1.998411e+003,3.364380e+000
2.000339e+003,1.351685e+000
2.002268e+003,3.202637e+000
2.004196e+003,-7.653198e+000
2.006125e+003,-1.844153e+001
2.008053e+003,4.344604e+000
2.009981e+003,2.322754e+000
2.011910e+003,-1.002563e+001
2.013838e+003,-9.798584e-001
2.015767e+003,1.405884e+000
2.017695e+003,-1.963757e+001
2.019624e+003,-5.760498e-001
2.021552e+003,1.705933e+000
2.023481e+003,-6.122314e+000
2.025409e+003,-7.781860e+000
2.027338e+003,-3.346680e+000
2.029266e+003,6.817505e+000
2.031195e+003,2.182227e+001
2.033123e+003,2.669238e+001
2.035052e+003,6.378052e+000
2.036980e+003,-4.819214e+000
2.038908e+003,4.741577e+000
2.040837e+003,3.420410e+000
2.042765e+003,-3.364258e+000
2.044694e+003,-2.374146e+000
2.046622e+003,1.703003e+000
2.048551e+003,1.015784e+001
2.050479e+003,9.966064e+000
2.052408e+003,-3.673706e+000
2.054336e+003,-1.129456e+001
2.056265e+003,-7.278076e+000
2.058193e+003,7.192993e+000
2.060122e+003,9.000610e+000
2.062050e+003,-8.273926e+000
2.063979e+003,-1.434387e+001
2.065907e+003,-6.140869e+000
2.067835e+003,-1.184229e+001
2.069764e+003,2.137451e-001
2.071692e+003,1.663696e+000
2.073621e+003,6.062134e+000
2.075549e+003,-5.446289e+000
2.077478e+003,2.071777e+000
2.079406e+003,-3.304443e+000
2.081335e+003,6.610229e+000
2.083263e+003,1.105627e+001
2.085192e+003,6.583130e+000
2.087120e+003,-6.018066e-002
2.089049e+003,-8.745361e+000
2.090977e+003,-9.671997e+000
2.092906e+003,9.779053e-001
2.094834e+003,-4.578247e+000
2.096762e+003,-5.776611e+000
2.098691e+003,-1.308081e+001
2.100619e+003,-6.177734e+000
2.102548e+003,-7.440308e+000
2.104476e+003,9.546997e+000
2.106405e+003,3.596191e-001
2.108333e+003,-1.900903e+001
2.110262e+003,1.325684e+000
2.112190e+003,8.226929e+000
2.114119e+003,-5.820679e+000
2.116047e+003,-8.381470e+000
2.117976e+003,-8.551147e+000
2.119904e+003,9.852539e+000
2.121833e+003,1.220703e+000
2.123761e+003,2.980225e+000
2.125689e+003,7.503052e+000
2.127618e+003,-6.570068e+000
2.129546e+003,-8.486572e+000
2.131475e+003,6.786133e+000
2.133403e+003,5.701294e+000
2.135332e+003,-1.060217e+001
2.137260e+003,-2.393176e+001
2.139189e+003,-1.743994e+001
2.141117e+003,-8.472900e-001
2.143046e+003,-9.425049e-001
2.144974e+003,-1.033167e+001
2.146903e+003,-1.346436e-001
2.148831e+003,-8.802612e+000
2.150760e+003,4.749512e+000
2.152688e+003,-5.828003e+000
2.154616e+003,-1.233435e+001
2.156545e+003,-6.666260e-001
2.158473e+003,2.910278e+000
2.160402e+003,1.255371e+000
2.162330e+003,1.160144e+001
2.164259e+003,1.700513e+001
2.166187e+003,-2.809692e+000
2.168116e+003,-1.140063e+001
2.170044e+003,2.464111e+000
2.171973e+003,-4.577271e+000
2.173901e+003,9.737549e-001
2.175830e+003,9.990356e+000
2.177758e+003,-1.338257e+000
2.179687e+003,-7.739258e-001
2.181615e+003,-1.352271e+001
2.183543e+003,-1.390918e+001
2.185472e+003,-1.081079e+001
2.187400e+003,-7.418945e+000
2.189329e+003,-1.115332e+001
2.191257e+003,-3.369995e+000
2.193186e+003,2.550049e+000
2.195114e+003,-8.537476e+000
2.197043e+003,-1.118970e+001
2.198971e+003,-7.147217e-001
2.200900e+003,-6.404419e+000
2.202828e+003,2.841675e+000
2.204757e+003,3.728394e+000
2.206685e+003,-1.332300e+001
2.208614e+003,-1.532910e+001
2.210542e+003,3.489990e+000
2.212470e+003,9.511108e+000
2.214399e+003,1.294958e+001
2.216327e+003,-4.124756e-001
2.218256e+003,2.179321e+000
2.220184e+003,1.548743e+001
2.222113e+003,4.326538e+000
2.224041e+003,-4.392456e+000
2.225970e+003,8.542236e+000
2.227898e+003,1.353076e+001
2.229827e+003,4.944214e+000
2.231755e+003,1.245483e+000
2.233684e+003,5.881348e+000
2.235612e+003,1.595569e+001
2.237541e+003,2.611462e+001
2.239469e+003,2.961279e+001
2.241397e+003,3.006470e+001
2.243326e+003,3.021143e+001
2.245254e+003,1.652124e+001
2.247183e+003,6.289917e+000
2.249111e+003,1.925256e+001
2.251040e+003,2.912866e+001
2.252968e+003,1.375781e+001
2.254897e+003,-7.461670e+000
2.256825e+003,4.744995e+000
2.258754e+003,-7.009888e+000
2.260682e+003,2.561462e+001
2.262611e+003,1.239404e+001
2.264539e+003,3.974365e+000
2.266468e+003,-1.008911e+000
2.268396e+003,3.715210e+000
2.270324e+003,2.399170e+000
2.272253e+003,2.554932e-001
2.274181e+003,-4.546387e+000
2.276110e+003,-4.430908e+000
2.278038e+003,5.723877e+000
2.279967e+003,-1.076782e+000
2.281895e+003,-2.751709e+000
2.283824e+003,2.954346e+000
2.285752e+003,-2.304932e+000
2.287681e+003,-1.532642e+001
2.289609e+003,5.809204e+000
2.291538e+003,7.278564e+000
2.293466e+003,7.033203e+000
2.295395e+003,3.627075e+000
2.297323e+003,3.692261e+000
2.299251e+003,-4.133423e+000
2.301180e+003,-1.757898e+001
2.303108e+003,-1.714453e+001
2.305037e+003,-1.681372e+001
2.306965e+003,-2.497424e+001
2.308894e+003,-2.554932e-001
2.310822e+003,2.001294e+001
2.312751e+003,-1.502332e+001
2.314679e+003,1.672119e+001
2.316608e+003,7.126709e+000
2.318536e+003,-7.142822e+000
2.320465e+003,4.422729e+000
2.322393e+003,1.792725e+000
2.324322e+003,7.870850e+000
2.326250e+003,1.206360e+001
2.328178e+003,4.586792e+000
2.330107e+003,4.710449e+000
2.332035e+003,5.561157e+000
2.333964e+003,2.835205e+000
2.335892e+003,8.704224e+000
2.337821e+003,1.377222e+001
2.339749e+003,4.321899e+000
2.341678e+003,4.324341e+000
2.343606e+003,-6.319824e+000
2.345535e+003,-2.970703e+000
2.347463e+003,1.793518e+001
2.349392e+003,7.810303e+000
2.351320e+003,-1.472498e+001
2.353249e+003,-2.643982e+001
2.355177e+003,-1.699670e+001
2.357105e+003,-1.110229e+000
2.359034e+003,-8.577515e+000
2.360962e+003,1.012573e+001
2.362891e+003,1.411194e+001
2.364819e+003,-2.929810e+000
2.366748e+003,-3.244385e+000
2.368676e+003,-2.404785e-001
2.370605e+003,-7.893188e+000
2.372533e+003,-1.333069e+001
2.374462e+003,1.281128e+000
2.376390e+003,7.492676e+000
2.378319e+003,-7.830933e+000
2.380247e+003,-1.331934e+001
2.382176e+003,-1.072839e+001
2.384104e+003,2.087524e+000
2.386032e+003,4.293213e+000
2.387961e+003,-8.800293e+000
2.389889e+003,-2.008496e+001
2.391818e+003,3.072266e+000
2.393746e+003,-1.716089e+001
2.395675e+003,2.484741e+000
2.397603e+003,9.482666e+000
2.399532e+003,3.371094e+000
2.401460e+003,8.978271e+000
2.403389e+003,1.041211e+001
2.405317e+003,3.190063e+000
2.407246e+003,2.367188e+000
2.409174e+003,-2.081177e+000
2.411103e+003,4.334106e+000
2.413031e+003,-3.803467e+000
2.414959e+003,2.433899e+001
2.416888e+003,-1.976318e+000
2.418816e+003,1.329358e+001
2.420745e+003,1.955005e+001
2.422673e+003,-3.514893e+000
2.424602e+003,-2.244495e+001
2.426530e+003,-1.126672e+001
2.428459e+003,-7.798828e+000
2.430387e+003,-1.797314e+001
2.432316e+003,-9.661011e+000
2.434244e+003,8.168213e+000
2.436173e+003,1.863501e+001
2.438101e+003,1.061047e+001
2.440030e+003,-4.779541e+000
2.441958e+003,-1.376099e+000
2.443886e+003,-6.926392e+000
2.445815e+003,-1.497754e+001
2.447743e+003,-5.297974e+000
2.449672e+003,-1.721680e+000
2.451600e+003,-1.149658e+001
2.453529e+003,-1.609338e+001
2.455457e+003,-7.005005e+000
2.457386e+003,1.872681e+000
2.459314e+003,-1.206653e+001
2.461243e+003,-1.976685e+001
2.463171e+003,9.611450e+000
2.465100e+003,-6.374756e+000
2.467028e+003,-7.623169e+000
2.468957e+003,1.533325e+001
2.470885e+003,-1.648438e+000
2.472813e+003,-5.976440e+000
2.474742e+003,-4.424194e+000
2.476670e+003,-1.253955e+001
2.478599e+003,1.861938e+000
2.480527e+003,1.018823e+001
2.482456e+003,-4.057617e+000
2.484384e+003,-4.258789e+000
2.486313e+003,-1.175732e+001
2.488241e+003,-1.507349e+001
2.490170e+003,3.046021e+000
2.492098e+003,-9.074463e+000
2.494027e+003,-1.544153e+001
2.495955e+003,6.625366e+000
2.497884e+003,7.536133e+000
2.499812e+003,1.569824e-001
2.501740e+003,1.429443e-001
2.503669e+003,-3.040771e+000
2.505597e+003,-1.160486e+001
2.507526e+003,-2.029785e+001
2.509454e+003,-9.463257e+000
2.511383e+003,-1.660474e+001
2.513311e+003,4.069336e+000
2.515240e+003,-7.465698e+000
2.517168e+003,-1.788513e+001
2.519097e+003,-1.950574e+001
2.521025e+003,-3.528308e+001
2.522954e+003,-1.209167e+001
2.524882e+003,-1.353503e+001
2.526811e+003,-2.025940e+001
2.528739e+003,-1.450378e+001
2.530667e+003,-1.744958e+001
2.532596e+003,-2.464526e+001
2.534524e+003,-1.269543e+001
2.536453e+003,-5.920044e+000
2.538381e+003,-2.523389e+001
2.540310e+003,-3.071887e+001
2.542238e+003,-1.983228e+001
2.544167e+003,-1.156470e+001
2.546095e+003,-1.611584e+001
2.548024e+003,-7.564697e+000
2.549952e+003,-7.809937e+000
2.551881e+003,-1.008569e+001
2.553809e+003,-1.038806e+001
2.555738e+003,-1.729028e+001
2.557666e+003,-1.091370e+001
2.559594e+003,-5.568970e+000
2.561523e+003,-2.075476e+001
2.563451e+003,3.268188e+000
2.565380e+003,-6.328491e+000
2.567308e+003,-6.186523e+000
2.569237e+003,-2.808716e+000
2.571165e+003,9.273682e-001
2.573094e+003,-4.207520e+000
2.575022e+003,-1.577148e-001
2.576951e+003,-5.766357e+000
2.578879e+003,-8.537231e+000
2.580808e+003,1.286377e+000
2.582736e+003,4.840576e+000
2.584665e+003,-5.712646e+000
2.586593e+003,-8.087891e+000
2.588521e+003,-2.100342e+000
2.590450e+003,-9.632446e+000
2.592378e+003,-2.264404e-001
2.594307e+003,1.330310e+001
2.596235e+003,5.509888e+000
2.598164e+003,1.163342e+001
2.600092e+003,7.539551e+000
2.602021e+003,2.565796e+000
2.603949e+003,5.402832e-001
2.605878e+003,1.224121e+000
2.607806e+003,1.468237e+001
2.609735e+003,2.583728e+001
2.611663e+003,1.519788e+001
2.613592e+003,2.155090e+001
2.615520e+003,2.855310e+001
2.617448e+003,1.911511e+001
2.619377e+003,2.657019e+001
2.621305e+003,1.469580e+001
2.623234e+003,9.886475e+000
2.625162e+003,2.430994e+001
2.627091e+003,3.516577e+001
2.629019e+003,2.778967e+001
2.630948e+003,1.141150e+001
2.632876e+003,-2.204468e+000
2.634805e+003,-4.004517e+000
2.636733e+003,2.157996e+001
2.638662e+003,1.198743e+001
2.640590e+003,1.521814e+001
2.642519e+003,2.288342e+001
2.644447e+003,2.012842e+001
2.646375e+003,1.651697e+001
2.648304e+003,2.956824e+001
2.650232e+003,3.299854e+001
2.652161e+003,2.353821e+001
2.654089e+003,1.399976e+001
2.656018e+003,1.462170e+001
2.657946e+003,1.396045e+001
2.659875e+003,1.969238e+001
2.661803e+003,1.962244e+001
2.663732e+003,3.993115e+001
2.665660e+003,1.630811e+001
2.667589e+003,1.772009e+001
2.669517e+003,2.981702e+001
2.671446e+003,2.516064e+001
2.673374e+003,1.437463e+001
2.675302e+003,2.814209e+001
2.677231e+003,4.280322e+001
2.679159e+003,2.704236e+001
2.681088e+003,2.413171e+001
2.683016e+003,4.358386e+001
2.684945e+003,3.261792e+001
2.686873e+003,3.453699e+001
2.688802e+003,4.075513e+001
2.690730e+003,2.748376e+001
2.692659e+003,3.294434e+001
2.694587e+003,3.817346e+001
2.696516e+003,3.705640e+001
2.698444e+003,6.130042e+001
2.700373e+003,6.241235e+001
2.702301e+003,5.487073e+001
2.704229e+003,6.995459e+001
2.706158e+003,7.386292e+001
2.708086e+003,7.444153e+001
2.710015e+003,7.256604e+001
2.711943e+003,7.198877e+001
2.713872e+003,6.926221e+001
2.715800e+003,5.536462e+001
2.717729e+003,6.765332e+001
2.719657e+003,7.703308e+001
2.721586e+003,9.812317e+001
2.723514e+003,9.514685e+001
2.725443e+003,7.450220e+001
2.727371e+003,8.043542e+001
2.729300e+003,8.559485e+001
2.731228e+003,9.409155e+001
2.733156e+003,9.000024e+001
2.735085e+003,8.451245e+001
2.737013e+003,7.676001e+001
2.738942e+003,1.015253e+002
2.740870e+003,9.492395e+001
2.742799e+003,8.083362e+001
2.744727e+003,7.459546e+001
2.746656e+003,7.467102e+001
2.748584e+003,6.993591e+001
2.750513e+003,6.486877e+001
2.752441e+003,5.755481e+001
2.754370e+003,4.616614e+001
2.756298e+003,4.446570e+001
2.758227e+003,5.275085e+001
2.760155e+003,3.770740e+001
2.762083e+003,4.362378e+001
2.764012e+003,4.364087e+001
2.765940e+003,5.840466e+001
2.767869e+003,2.490942e+001
2.769797e+003,1.798462e+001
2.771726e+003,2.400085e+001
2.773654e+003,2.441418e+001
2.775583e+003,2.228723e+001
2.777511e+003,3.238672e+001
2.779440e+003,3.762976e+001
2.781368e+003,3.975220e+001
2.783297e+003,2.643591e+001
2.785225e+003,1.328992e+001
2.787154e+003,2.650330e+001
2.789082e+003,1.859424e+001
2.791010e+003,2.498059e+001
2.792939e+003,1.753088e+001
2.794867e+003,2.629663e+001
2.796796e+003,2.025989e+001
2.798724e+003,3.356445e+001
2.800653e+003,4.174695e+001
2.802581e+003,5.030420e+001
2.804510e+003,4.388135e+001
2.806438e+003,5.159204e+001
2.808367e+003,7.829004e+001
2.810295e+003,9.304651e+001
2.812224e+003,1.246195e+002
2.814152e+003,1.318573e+002
2.816081e+003,1.569014e+002
2.818009e+003,1.622771e+002
2.819938e+003,1.647367e+002
2.821866e+003,1.811155e+002
2.823794e+003,1.818687e+002
2.825723e+003,1.925658e+002
2.827651e+003,2.085643e+002
2.829580e+003,2.261846e+002
2.831508e+003,2.804663e+002
2.833437e+003,3.207421e+002
2.835365e+003,3.873153e+002
2.837294e+003,4.584956e+002
2.839222e+003,5.122944e+002
2.841151e+003,5.710879e+002
2.843079e+003,6.225094e+002
2.845008e+003,6.757148e+002
2.846936e+003,6.763610e+002
2.848865e+003,6.792920e+002
2.850793e+003,6.732902e+002
2.852721e+003,6.542665e+002
2.854650e+003,6.689479e+002
2.856578e+003,6.311855e+002
2.858507e+003,6.002361e+002
2.860435e+003,5.844646e+002
2.862364e+003,5.760352e+002
2.864292e+003,5.780664e+002
2.866221e+003,5.562260e+002
2.868149e+003,5.560198e+002
2.870078e+003,5.691862e+002
2.872006e+003,5.880815e+002
2.873935e+003,6.144799e+002
2.875863e+003,6.282567e+002
2.877792e+003,6.634586e+002
2.879720e+003,6.924835e+002
2.881648e+003,6.901870e+002
2.883577e+003,7.099713e+002
2.885505e+003,7.545415e+002
2.887434e+003,7.882305e+002
2.889362e+003,8.597976e+002
2.891291e+003,9.518663e+002
2.893219e+003,1.096653e+003
2.895148e+003,1.285791e+003
2.897076e+003,1.528907e+003
2.899005e+003,1.863507e+003
2.900933e+003,2.224126e+003
2.902862e+003,2.681335e+003
2.904790e+003,3.137533e+003
2.906719e+003,3.581224e+003
2.908647e+003,3.939366e+003
2.910575e+003,4.249882e+003
2.912504e+003,4.405562e+003
2.914432e+003,4.404242e+003
2.916361e+003,4.267301e+003
2.918289e+003,3.975132e+003
2.920218e+003,3.703514e+003
2.922146e+003,3.414913e+003
2.924075e+003,3.236655e+003
2.926003e+003,3.034539e+003
2.927932e+003,2.921248e+003
2.929860e+003,2.834571e+003
2.931789e+003,2.800630e+003
2.933717e+003,2.782916e+003
2.935646e+003,2.762588e+003
2.937574e+003,2.727275e+003
2.939502e+003,2.677167e+003
2.941431e+003,2.572537e+003
2.943359e+003,2.450045e+003
2.945288e+003,2.329359e+003
2.947216e+003,2.219783e+003
2.949145e+003,2.071215e+003
2.951073e+003,1.914401e+003
2.953002e+003,1.804046e+003
2.954930e+003,1.660304e+003
2.956859e+003,1.550156e+003
2.958787e+003,1.468761e+003
2.960716e+003,1.410396e+003
2.962644e+003,1.394941e+003
2.964573e+003,1.407851e+003
2.966501e+003,1.430052e+003
2.968429e+003,1.469802e+003
2.970358e+003,1.522039e+003
2.972286e+003,1.479599e+003
2.974215e+003,1.437335e+003
2.976143e+003,1.361525e+003
2.978072e+003,1.253239e+003
2.980000e+003,1.146502e+003
2.981929e+003,1.042414e+003
2.983857e+003,9.583804e+002
2.985786e+003,8.582231e+002
2.987714e+003,7.751831e+002
2.989643e+003,7.291899e+002
2.991571e+003,6.583523e+002
2.993500e+003,5.947396e+002
2.995428e+003,5.596553e+002
2.997356e+003,5.412328e+002
2.999285e+003,4.987684e+002
3.001213e+003,4.615240e+002
3.003142e+003,4.388761e+002
3.005070e+003,4.087039e+002
3.006999e+003,3.808523e+002
3.008927e+003,3.467018e+002
3.010856e+003,3.141199e+002
3.012784e+003,2.831965e+002
3.014713e+003,2.567461e+002
3.016641e+003,2.603387e+002
3.018570e+003,2.217511e+002
3.020498e+003,1.979725e+002
3.022427e+003,1.938235e+002
3.024355e+003,2.036118e+002
3.026283e+003,1.821791e+002
3.028212e+003,1.655636e+002
3.030140e+003,1.813503e+002
3.032069e+003,1.894637e+002
3.033997e+003,1.844022e+002
3.035926e+003,1.854661e+002
3.037854e+003,1.690353e+002
3.039783e+003,1.631653e+002
3.041711e+003,1.533271e+002
3.043640e+003,1.528141e+002
3.045568e+003,1.644381e+002
3.047497e+003,1.901674e+002
3.049425e+003,2.272521e+002
3.051354e+003,2.491338e+002
3.053282e+003,2.496147e+002
3.055210e+003,2.390330e+002
3.057139e+003,2.217773e+002
3.059067e+003,2.176410e+002
3.060996e+003,2.293612e+002
3.062924e+003,2.154100e+002
3.064853e+003,1.792351e+002
3.066781e+003,1.784845e+002
3.068710e+003,1.518481e+002
3.070638e+003,1.333099e+002
3.072567e+003,1.064735e+002
3.074495e+003,8.513196e+001
3.076424e+003,7.571387e+001
3.078352e+003,7.127051e+001
3.080281e+003,7.767517e+001
3.082209e+003,7.772766e+001
3.084137e+003,7.675806e+001
3.086066e+003,3.670593e+001
3.087994e+003,3.587488e+001
3.089923e+003,4.087061e+001
3.091851e+003,3.089001e+001
3.093780e+003,-1.620239e+000
3.095708e+003,1.034155e+001
3.097637e+003,2.801978e+001
3.099565e+003,1.856128e+001
3.101494e+003,6.895630e+000
3.103422e+003,-4.495850e+000
3.105351e+003,2.864502e+000
3.107279e+003,1.215283e+001
3.109208e+003,2.140137e+000
3.111136e+003,-5.197998e+000
3.113064e+003,-6.676270e+000
3.114993e+003,8.184448e+000
3.116921e+003,1.200098e+001
3.118850e+003,-2.768677e+000
3.120778e+003,-4.408813e+000
3.122707e+003,9.125488e+000
3.124635e+003,2.084851e+001
3.126564e+003,2.122620e+001
3.128492e+003,1.066431e+001
3.130421e+003,-5.646606e+000
3.132349e+003,2.087769e+000
3.134278e+003,1.540125e+001
3.136206e+003,-1.664270e+001
3.138135e+003,2.986328e+000
3.140063e+003,-1.191638e+001
3.141991e+003,-1.402954e+001
3.143920e+003,-4.959106e+000
3.145848e+003,1.415039e+000
3.147777e+003,2.426636e+000
3.149705e+003,1.644971e+001
3.151634e+003,-2.345886e+001
3.153562e+003,9.563477e+000
3.155491e+003,3.644775e+000
3.157419e+003,-2.332642e+000
3.159348e+003,9.250977e+000
3.161276e+003,7.119141e+000
3.163205e+003,-6.888306e+000
3.165133e+003,-1.114063e+001
3.167062e+003,-5.690674e+000
3.168990e+003,-5.421875e+000
3.170918e+003,-2.829590e-001
3.172847e+003,-1.083972e+001
3.174775e+003,-3.690430e+000
3.176704e+003,-3.547363e+000
3.178632e+003,-8.232666e+000
3.180561e+003,9.978027e-001
3.182489e+003,1.114905e+001
3.184418e+003,1.113892e+001
3.186346e+003,-6.700317e+000
3.188275e+003,-1.616345e+001
3.190203e+003,-5.227051e-001
3.192132e+003,9.912598e+000
3.194060e+003,9.437744e+000
3.195989e+003,2.044434e+000
3.197917e+003,1.215210e+001
3.199845e+003,1.136475e-001
3.201774e+003,3.050537e-001
3.203702e+003,3.800293e+000
3.205631e+003,7.395264e+000
3.207559e+003,1.296375e+001
3.209488e+003,4.062744e+000
3.211416e+003,3.444214e+000
3.213345e+003,-3.311401e+000
3.215273e+003,-1.514319e+001
3.217202e+003,-1.905676e+001
3.219130e+003,7.723389e-001
3.221059e+003,-3.597900e+000
3.222987e+003,-1.157959e+001
3.224916e+003,-1.446533e+001
3.226844e+003,-4.377075e+000
3.228772e+003,1.633191e+001
3.230701e+003,3.385986e+000
3.232629e+003,-3.744019e+000
3.234558e+003,2.782471e+000
3.236486e+003,5.006958e+000
3.238415e+003,2.567505e+000
3.240343e+003,1.506433e+001
3.242272e+003,-5.792114e+000
3.244200e+003,-1.310962e+001
3.246129e+003,-3.472534e+000
3.248057e+003,-1.948364e+000
3.249986e+003,-4.387939e+000
3.251914e+003,1.624634e+000
3.253843e+003,3.209595e+000
3.255771e+003,3.361084e+000
3.257699e+003,-1.056396e+001
3.259628e+003,-4.045410e+000
3.261556e+003,4.106567e+000
3.263485e+003,-5.098511e+000
3.265413e+003,-5.733643e+000
3.267342e+003,-1.027820e+001
3.269270e+003,-1.389160e+000
3.271199e+003,3.158936e+000
3.273127e+003,-1.974487e+000
3.275056e+003,-4.841553e+000
3.276984e+003,6.853271e+000
3.278913e+003,9.881348e+000
3.280841e+003,-9.724121e-001
3.282770e+003,-6.193726e+000
3.284698e+003,-2.279419e+000
3.286626e+003,-1.789795e+000
3.288555e+003,2.137451e+000
3.290483e+003,5.046875e+000
3.292412e+003,-7.237427e+000
3.294340e+003,-1.251282e+001
3.296269e+003,-3.369629e+000
3.298197e+003,-3.009644e+000
3.300126e+003,1.207397e+000
3.302054e+003,5.302368e+000
3.303983e+003,6.036499e+000
3.305911e+003,-3.968628e+000
3.307840e+003,-1.687866e+000
3.309768e+003,1.936279e+000
3.311697e+003,1.280396e+001
3.313625e+003,1.407031e+001
3.315553e+003,7.552979e+000
3.317482e+003,9.151123e+000
3.319410e+003,1.122009e+001
3.321339e+003,1.199780e+001
3.323267e+003,2.186511e+001
3.325196e+003,1.851648e+001
3.327124e+003,1.237366e+001
3.329053e+003,-1.196289e+000
3.330981e+003,-1.328210e+001
3.332910e+003,-9.338623e+000
3.334838e+003,-4.166626e+000
3.336767e+003,-4.248535e+000
3.338695e+003,1.225586e-001
3.340624e+003,3.524292e+000
3.342552e+003,-1.963867e+000
3.344480e+003,-6.858398e+000
3.346409e+003,1.336414e+001
3.348337e+003,1.103528e+001
3.350266e+003,7.910156e-001
3.352194e+003,-1.160803e+001
3.354123e+003,-1.684692e+001
3.356051e+003,-3.651245e+000
3.357980e+003,1.131348e+000
3.359908e+003,1.280847e+001
3.361837e+003,1.580383e+001
3.363765e+003,-2.322998e+000
3.365694e+003,-1.078284e+001
3.367622e+003,2.250122e+000
3.369551e+003,2.536206e+001
3.371479e+003,-8.068481e+000
3.373407e+003,5.063721e+000
3.375336e+003,-4.583252e+000
3.377264e+003,-4.374390e+000
3.379193e+003,1.938110e+000
3.381121e+003,-1.879175e+001
3.383050e+003,-9.640259e+000
3.384978e+003,2.802124e+000
3.386907e+003,-5.528198e+000
3.388835e+003,2.939209e+000
3.390764e+003,-3.046265e+000
3.392692e+003,-9.237549e+000
3.394621e+003,1.400012e+001
3.396549e+003,-2.544312e+000
3.398478e+003,1.720776e+001
3.400406e+003,7.359131e+000
